{"type": "ecg", "timestamp": 139, "samplenum": 140, "frequency:": 128, "heartrate": 103, "period": 578, "status": 1, "samples": [-0.0713348388671875, -0.0766754150390625, -0.0736236572265625, -0.0713348388671875, -0.070953369140625, -0.067901611328125, -0.0732421875, -0.0751495361328125, -0.077056884765625, -0.083160400390625, -0.090789794921875, -0.1033782958984375, -0.098419189453125, -0.096893310546875, -0.1117706298828125, -0.116729736328125, -0.1129150390625, -0.099945068359375, -0.091552734375, -0.0885009765625, -0.07476806640625, -0.0728607177734375, -0.0823974609375, -0.0946044921875, -0.1117706298828125, -0.122833251953125, -0.1312255859375, -0.13275146484375, -0.1354217529296875, -0.1361846923828125, -0.1491546630859375, -0.1300811767578125, 0.1209259033203125, 0.48065185546875, 0.7305145263671875, 0.91705322265625, 0.641632080078125, 0.0247955322265625, -0.1407623291015625, -0.0797271728515625, -0.1247406005859375, -0.1190185546875, -0.1247406005859375, -0.1468658447265625, -0.144195556640625, -0.14495849609375, -0.145721435546875, -0.13275146484375, -0.1117706298828125, -0.104522705078125, -0.1003265380859375, -0.09765625, -0.09307861328125, -0.0732421875, -0.05035400390625, -0.0274658203125, -0.003814697265625, 0.0125885009765625, 0.02593994140625, 0.02593994140625, 0.0186920166015625, 0.0110626220703125, 0.000762939453125, -0.00152587890625, -0.0003814697265625, -0.002288818359375, -0.000762939453125, -0.00457763671875, -0.0110626220703125, -0.026702880859375, -0.037384033203125, -0.0370025634765625, -0.042724609375, -0.04425048828125, -0.043487548828125, -0.0492095947265625, -0.0438690185546875, -0.0408172607421875, -0.049591064453125, -0.054168701171875, -0.0576019287109375, -0.061798095703125, -0.06561279296875, -0.06561279296875, -0.0659942626953125, -0.0720977783203125, -0.07781982421875, -0.0843048095703125, -0.0904083251953125, -0.0957489013671875, -0.092315673828125, -0.07781982421875, -0.0736236572265625, -0.0682830810546875, -0.052642822265625, -0.041961669921875, -0.0377655029296875, -0.0415802001953125, -0.046539306640625, -0.0484466552734375, -0.0484466552734375, -0.041961669921875, -0.041961669921875, -0.045013427734375, -0.0698089599609375, -0.04730224609375, 0.225830078125, 0.594329833984375, 0.8861541748046875, 1.116180419921875, 0.8228302001953125, 0.180816650390625, -0.00762939453125, 0.0308990478515625, -0.0293731689453125, -0.0469207763671875, -0.063323974609375, -0.089263916015625, -0.1007080078125, -0.10833740234375, -0.102996826171875, -0.0865936279296875, -0.070953369140625, -0.0614166259765625, -0.055694580078125, -0.0568389892578125, -0.05645751953125, -0.043487548828125]}
{"type": "ecg", "timestamp": 140, "samplenum": 141, "frequency:": 128, "heartrate": 103, "period": 578, "status": 1, "samples": [-0.0274658203125, -0.0057220458984375, 0.0141143798828125, 0.0278472900390625, 0.03814697265625, 0.0400543212890625, 0.03509521484375, 0.0232696533203125, 0.0118255615234375, 0.0102996826171875, 0.0095367431640625, 0.009918212890625, 0.01373291015625, 0.006103515625, -0.01220703125, -0.026702880859375, -0.0362396240234375, -0.0453948974609375, -0.0507354736328125, -0.04425048828125, -0.0377655029296875, -0.0362396240234375, -0.038909912109375, -0.045013427734375, -0.0408172607421875, -0.0396728515625, -0.041961669921875, -0.0438690185546875, -0.0514984130859375, -0.054168701171875, -0.0560760498046875, -0.0598907470703125, -0.058746337890625, -0.0614166259765625, -0.066375732421875, -0.0743865966796875, -0.0759124755859375, -0.067901611328125, -0.069427490234375, -0.067901611328125, -0.0614166259765625, -0.060272216796875, -0.0640869140625, -0.07781982421875, -0.083160400390625, -0.08392333984375, -0.086212158203125, -0.0782012939453125, -0.07781982421875, -0.07781982421875, -0.0988006591796875, -0.080108642578125, 0.17852783203125, 0.5462646484375, 0.84686279296875, 1.09710693359375, 0.8518218994140625, 0.2071380615234375, -0.0247955322265625, 0.0133514404296875, -0.041961669921875, -0.0598907470703125, -0.0751495361328125, -0.109100341796875, -0.1201629638671875, -0.128173828125, -0.12664794921875, -0.1102447509765625, -0.0965118408203125, -0.0904083251953125, -0.09002685546875, -0.09307861328125, -0.0885009765625, -0.0797271728515625, -0.06561279296875, -0.042724609375, -0.0156402587890625, 0.006866455078125, 0.0141143798828125, 0.0152587890625, 0.0125885009765625, -0.0011444091796875, -0.0110626220703125, -0.0164031982421875, -0.017547607421875, -0.0133514404296875, -0.020599365234375, -0.029754638671875, -0.040435791015625, -0.0568389892578125, -0.0701904296875, -0.0823974609375, -0.0850677490234375, -0.0789642333984375, -0.0774383544921875, -0.07476806640625, -0.0732421875, -0.0675201416015625, -0.0637054443359375, -0.0659942626953125, -0.0621795654296875, -0.0598907470703125, -0.0598907470703125, -0.0583648681640625, -0.0640869140625, -0.066375732421875, -0.0698089599609375, -0.0728607177734375, -0.0675201416015625, -0.0774383544921875, -0.0896453857421875, -0.081634521484375, -0.0713348388671875, -0.0675201416015625, -0.06103515625, -0.0484466552734375, -0.0438690185546875, -0.051116943359375, -0.05950927734375, -0.067901611328125, -0.0698089599609375, -0.0713348388671875, -0.0759124755859375, -0.0682830810546875, -0.080108642578125, -0.115203857421875, -0.0125885009765625, 0.3154754638671875]}
{"type": "ecg", "timestamp": 141, "samplenum": 142, "frequency:": 128, "heartrate": 99, "period": 601, "status": 1, "samples": [0.652313232421875, 0.9552001953125, 1.0555267333984375, 0.5401611328125, 0.0003814697265625, -0.0270843505859375, -0.023651123046875, -0.078582763671875, -0.0732421875, -0.10528564453125, -0.125885009765625, -0.1247406005859375, -0.1163482666015625, -0.09613037109375, -0.0858306884765625, -0.075531005859375, -0.074005126953125, -0.081634521484375, -0.0762939453125, -0.067901611328125, -0.0537872314453125, -0.034332275390625, -0.012969970703125, 0.0141143798828125, 0.0270843505859375, 0.0308990478515625, 0.02899169921875, 0.0125885009765625, 0.0011444091796875, -0.0095367431640625, -0.01678466796875, -0.012969970703125, -0.0152587890625, -0.018310546875, -0.023651123046875, -0.037384033203125, -0.0476837158203125, -0.06103515625, -0.067138671875, -0.0682830810546875, -0.0690460205078125, -0.061798095703125, -0.0621795654296875, -0.0644683837890625, -0.054168701171875, -0.0522613525390625, -0.0583648681640625, -0.061798095703125, -0.060272216796875, -0.063323974609375, -0.0690460205078125, -0.067901611328125, -0.07476806640625, -0.0820159912109375, -0.0823974609375, -0.091552734375, -0.0965118408203125, -0.0946044921875, -0.0919342041015625, -0.09002685546875, -0.089263916015625, -0.0835418701171875, -0.083160400390625, -0.0881195068359375, -0.0965118408203125, -0.10833740234375, -0.1071929931640625, -0.1018524169921875, -0.103759765625, -0.10223388671875, -0.1010894775390625, -0.125885009765625, -0.0823974609375, 0.1983642578125, 0.5596160888671875, 0.8396148681640625, 0.9860992431640625, 0.5954742431640625, 0.00457763671875, -0.0946044921875, -0.054168701171875, -0.1010894775390625, -0.0965118408203125, -0.115203857421875, -0.1323699951171875, -0.1331329345703125, -0.1316070556640625, -0.1171112060546875, -0.1018524169921875, -0.0865936279296875, -0.0820159912109375, -0.0804901123046875, -0.0743865966796875, -0.067138671875, -0.0469207763671875, -0.029754638671875, -0.0156402587890625, 0.006103515625, 0.02288818359375, 0.03509521484375, 0.0335693359375, 0.0213623046875, 0.0125885009765625, 0.00152587890625, -0.00152587890625, -0.0011444091796875, -0.0057220458984375, -0.0102996826171875, -0.0152587890625, -0.0240325927734375, -0.040435791015625, -0.054931640625, -0.0606536865234375, -0.066375732421875, -0.0621795654296875, -0.05645751953125, -0.0560760498046875, -0.0484466552734375, -0.04730224609375, -0.046539306640625, -0.038909912109375, -0.035858154296875, -0.03662109375, -0.041961669921875, -0.0446319580078125, -0.04425048828125, -0.05035400390625, -0.0518798828125]}
{"type": "ecg", "timestamp": 142, "samplenum": 143, "frequency:": 128, "heartrate": 91, "period": 656, "status": 1, "samples": [-0.0560760498046875, -0.0606536865234375, -0.0614166259765625, -0.0690460205078125, -0.0732421875, -0.0762939453125, -0.0701904296875, -0.0579833984375, -0.058746337890625, -0.054168701171875, -0.0476837158203125, -0.0522613525390625, -0.0518798828125, -0.06256103515625, -0.077056884765625, -0.077056884765625, -0.0732421875, -0.07171630859375, -0.070953369140625, -0.08392333984375, -0.10986328125, 0.019073486328125, 0.374603271484375, 0.733184814453125, 1.042938232421875, 1.0509490966796875, 0.489044189453125, 0.030517578125, 0.0057220458984375, -0.0141143798828125, -0.0545501708984375, -0.0667572021484375, -0.0980377197265625, -0.1117706298828125, -0.1171112060546875, -0.1129150390625, -0.0988006591796875, -0.0823974609375, -0.07476806640625, -0.0751495361328125, -0.0732421875, -0.0736236572265625, -0.06256103515625, -0.046539306640625, -0.0286102294921875, -0.006103515625, 0.0011444091796875, 0.012969970703125, 0.0232696533203125, 0.0179290771484375, 0.0095367431640625, -0.005340576171875, -0.01373291015625, -0.0133514404296875, -0.0164031982421875, -0.0141143798828125, -0.0164031982421875, -0.0244140625, -0.0335693359375, -0.048828125, -0.0576019287109375, -0.061798095703125, -0.063323974609375, -0.0629425048828125, -0.063323974609375, -0.0537872314453125, -0.051116943359375, -0.05035400390625, -0.0446319580078125, -0.048065185546875, -0.05035400390625, -0.054168701171875, -0.061798095703125, -0.06103515625, -0.067901611328125, -0.072479248046875, -0.069427490234375, -0.072479248046875, -0.0774383544921875, -0.0843048095703125, -0.08697509765625, -0.086212158203125, -0.0873565673828125, -0.08392333984375, -0.0904083251953125, -0.0946044921875, -0.0850677490234375, -0.0774383544921875, -0.0728607177734375, -0.0713348388671875, -0.0644683837890625, -0.0598907470703125, -0.0713348388671875, -0.0823974609375, -0.0896453857421875, -0.0911712646484375, -0.0881195068359375, -0.0911712646484375, -0.087738037109375, -0.1102447509765625, -0.1392364501953125, 0.0240325927734375, 0.3887176513671875, 0.74615478515625, 1.05438232421875, 1.0265350341796875, 0.457000732421875, 0.0213623046875, 0.0064849853515625, -0.01983642578125, -0.075531005859375, -0.0904083251953125, -0.1316070556640625, -0.1506805419921875, -0.151824951171875, -0.1491546630859375, -0.12664794921875, -0.1071929931640625, -0.0980377197265625, -0.0988006591796875, -0.1068115234375, -0.106048583984375, -0.1018524169921875, -0.0881195068359375, -0.0652313232421875, -0.045013427734375, -0.026702880859375, -0.016021728515625]}
{"type": "ecg", "timestamp": 143, "samplenum": 144, "frequency:": 128, "heartrate": 89, "period": 671, "status": 1, "samples": [-0.009918212890625, -0.0118255615234375, -0.0293731689453125, -0.0457763671875, -0.05950927734375, -0.0640869140625, -0.0598907470703125, -0.0621795654296875, -0.06561279296875, -0.0743865966796875, -0.0827789306640625, -0.089263916015625, -0.096893310546875, -0.0995635986328125, -0.1079559326171875, -0.1079559326171875, -0.09613037109375, -0.09307861328125, -0.0896453857421875, -0.0911712646484375, -0.09613037109375, -0.09307861328125, -0.098419189453125, -0.1007080078125, -0.1007080078125, -0.1094818115234375, -0.1094818115234375, -0.1125335693359375, -0.11749267578125, -0.119781494140625, -0.12664794921875, -0.125885009765625, -0.128936767578125, -0.133514404296875, -0.13275146484375, -0.1354217529296875, -0.1300811767578125, -0.12664794921875, -0.125885009765625, -0.1277923583984375, -0.144195556640625, -0.1445770263671875, -0.1312255859375, -0.1270294189453125, -0.116729736328125, -0.1132965087890625, -0.1125335693359375, -0.110626220703125, -0.1201629638671875, -0.128936767578125, -0.1373291015625, -0.1338958740234375, -0.128173828125, -0.13275146484375, -0.128173828125, -0.15869140625, -0.144195556640625, 0.10223388671875, 0.4665374755859375, 0.7968902587890625, 1.068115234375, 0.8716583251953125, 0.252532958984375, -0.03662109375, -0.0240325927734375, -0.0762939453125, -0.10528564453125, -0.124359130859375, -0.1636505126953125, -0.1766204833984375, -0.1903533935546875, -0.18310546875, -0.1556396484375, -0.1354217529296875, -0.1178741455078125, -0.1163482666015625, -0.115966796875, -0.10986328125, -0.1132965087890625, -0.0980377197265625, -0.07476806640625, -0.054168701171875, -0.0286102294921875, -0.017547607421875, -0.011444091796875, -0.0102996826171875, -0.0244140625, -0.0331878662109375, -0.0377655029296875, -0.035858154296875, -0.0286102294921875, -0.031280517578125, -0.031280517578125, -0.037384033203125, -0.0499725341796875, -0.05950927734375, -0.0701904296875, -0.0720977783203125, -0.07171630859375, -0.069427490234375, -0.0621795654296875, -0.0621795654296875, -0.05950927734375, -0.0614166259765625, -0.066375732421875, -0.0644683837890625, -0.069427490234375, -0.0720977783203125, -0.0652313232421875, -0.067138671875, -0.075531005859375, -0.0766754150390625, -0.070953369140625, -0.07476806640625, -0.084686279296875, -0.08697509765625, -0.0881195068359375, -0.0850677490234375, -0.086212158203125, -0.089263916015625, -0.0835418701171875, -0.0850677490234375, -0.083160400390625, -0.080108642578125, -0.083160400390625, -0.0789642333984375, -0.08544921875, -0.0885009765625]}
{"type": "ecg", "timestamp": 144, "samplenum": 145, "frequency:": 128, "heartrate": 89, "period": 671, "status": 1, "samples": [-0.07171630859375, -0.0621795654296875, -0.058746337890625, -0.05340576171875, -0.0446319580078125, -0.0415802001953125, -0.0518798828125, -0.0583648681640625, -0.06561279296875, -0.067138671875, -0.061798095703125, -0.0675201416015625, -0.057220458984375, -0.0701904296875, -0.1010894775390625, 0.070953369140625, 0.4291534423828125, 0.7442474365234375, 1.0204315185546875, 0.9532928466796875, 0.3582000732421875, -0.0293731689453125, -0.0118255615234375, -0.043487548828125, -0.0789642333984375, -0.081634521484375, -0.11749267578125, -0.1270294189453125, -0.127410888671875, -0.1232147216796875, -0.10223388671875, -0.0904083251953125, -0.0896453857421875, -0.0911712646484375, -0.0934600830078125, -0.079345703125, -0.06103515625, -0.0423431396484375, -0.0244140625, -0.0072479248046875, 0.0156402587890625, 0.0274658203125, 0.030517578125, 0.029754638671875, 0.02288818359375, 0.0133514404296875, -0.0057220458984375, -0.014495849609375, -0.0091552734375, -0.0156402587890625, -0.0209808349609375, -0.0286102294921875, -0.0438690185546875, -0.051116943359375, -0.061798095703125, -0.0682830810546875, -0.0667572021484375, -0.06866455078125, -0.063323974609375, -0.0614166259765625, -0.0621795654296875, -0.0583648681640625, -0.05645751953125, -0.052642822265625, -0.0560760498046875, -0.0598907470703125, -0.0576019287109375, -0.0606536865234375, -0.060272216796875, -0.0637054443359375, -0.067901611328125, -0.066375732421875, -0.0713348388671875, -0.074005126953125, -0.078582763671875, -0.0804901123046875, -0.07171630859375, -0.0759124755859375, -0.0804901123046875, -0.0789642333984375, -0.0804901123046875, -0.0766754150390625, -0.0762939453125, -0.0774383544921875, -0.0804901123046875, -0.0858306884765625, -0.0736236572265625, -0.0629425048828125, -0.057220458984375, -0.0499725341796875, -0.045013427734375, -0.040435791015625, -0.051116943359375, -0.0621795654296875, -0.064849853515625, -0.0652313232421875, -0.0614166259765625, -0.064849853515625, -0.06256103515625, -0.086212158203125, -0.075531005859375, 0.173187255859375, 0.5512237548828125, 0.8686065673828125, 1.09710693359375, 0.85296630859375, 0.241851806640625, -0.003814697265625, 0.023651123046875, -0.0202178955078125, -0.05035400390625, -0.0640869140625, -0.0949859619140625, -0.1049041748046875, -0.099945068359375, -0.0919342041015625, -0.074005126953125, -0.060272216796875, -0.0583648681640625, -0.0568389892578125, -0.0606536865234375, -0.054931640625, -0.0415802001953125, -0.0274658203125, -0.00457763671875, 0.014495849609375, 0.034332275390625, 0.04730224609375]}
{"type": "ecg", "timestamp": 145, "samplenum": 146, "frequency:": 128, "heartrate": 91, "period": 656, "status": 1, "samples": [0.0469207763671875, 0.0438690185546875, 0.0301361083984375, 0.0194549560546875, 0.012969970703125, 0.0034332275390625, 0.003814697265625, -0.0011444091796875, -0.008392333984375, -0.0133514404296875, -0.0293731689453125, -0.0415802001953125, -0.0492095947265625, -0.0583648681640625, -0.0637054443359375, -0.066375732421875, -0.0598907470703125, -0.054931640625, -0.0560760498046875, -0.0507354736328125, -0.049591064453125, -0.0492095947265625, -0.051116943359375, -0.057220458984375, -0.0579833984375, -0.0640869140625, -0.067138671875, -0.0713348388671875, -0.079345703125, -0.0804901123046875, -0.0885009765625, -0.0946044921875, -0.095367431640625, -0.10223388671875, -0.10223388671875, -0.103759765625, -0.10223388671875, -0.099945068359375, -0.1064300537109375, -0.1033782958984375, -0.1026153564453125, -0.1071929931640625, -0.1117706298828125, -0.1186370849609375, -0.099945068359375, -0.09002685546875, -0.0995635986328125, -0.0885009765625, -0.080108642578125, -0.080108642578125, -0.08697509765625, -0.1007080078125, -0.1079559326171875, -0.1110076904296875, -0.1110076904296875, -0.11138916015625, -0.115203857421875, -0.146484375, -0.124359130859375, 0.1399993896484375, 0.510406494140625, 0.83465576171875, 1.0997772216796875, 0.8575439453125, 0.2254486083984375, -0.0244140625, -0.014495849609375, -0.070953369140625, -0.0934600830078125, -0.1148223876953125, -0.148773193359375, -0.1644134521484375, -0.16937255859375, -0.15716552734375, -0.13275146484375, -0.1132965087890625, -0.0988006591796875, -0.0919342041015625, -0.1041412353515625, -0.1068115234375, -0.0926971435546875, -0.081634521484375, -0.0614166259765625, -0.0377655029296875, -0.020599365234375, -0.003814697265625, 0.000762939453125, 0.0003814697265625, -0.0102996826171875, -0.0263214111328125, -0.034332275390625, -0.042724609375, -0.0446319580078125, -0.0499725341796875, -0.0621795654296875, -0.0705718994140625, -0.0881195068359375, -0.1064300537109375, -0.115966796875, -0.124359130859375, -0.1220703125, -0.116729736328125, -0.109100341796875, -0.1049041748046875, -0.110626220703125, -0.10833740234375, -0.1102447509765625, -0.1148223876953125, -0.10986328125, -0.1171112060546875, -0.1251220703125, -0.1262664794921875, -0.12969970703125, -0.12969970703125, -0.13275146484375, -0.13427734375, -0.1361846923828125, -0.1392364501953125, -0.1392364501953125, -0.14190673828125, -0.1399993896484375, -0.1415252685546875, -0.1422882080078125, -0.1354217529296875, -0.1373291015625, -0.1392364501953125, -0.144195556640625, -0.148773193359375]}
{"type": "ecg", "timestamp": 146, "samplenum": 147, "frequency:": 128, "heartrate": 98, "period": 609, "status": 1, "samples": [-0.1312255859375, -0.1220703125, -0.1190185546875, -0.1102447509765625, -0.1064300537109375, -0.1026153564453125, -0.10833740234375, -0.1178741455078125, -0.1232147216796875, -0.1277923583984375, -0.1224517822265625, -0.127410888671875, -0.121307373046875, -0.1384735107421875, -0.147247314453125, 0.0762939453125, 0.435638427734375, 0.737762451171875, 1.0295867919921875, 0.9044647216796875, 0.287628173828125, -0.0408172607421875, -0.0274658203125, -0.0720977783203125, -0.1068115234375, -0.1186370849609375, -0.152587890625, -0.1708984375, -0.1773834228515625, -0.1773834228515625, -0.1590728759765625, -0.1384735107421875, -0.12969970703125, -0.122833251953125, -0.12664794921875, -0.1277923583984375, -0.1201629638671875, -0.1087188720703125, -0.083160400390625, -0.05950927734375, -0.0400543212890625, -0.0202178955078125, -0.0148773193359375, -0.0148773193359375, -0.0186920166015625, -0.02593994140625, -0.038909912109375, -0.046539306640625, -0.04119873046875, -0.0438690185546875, -0.0518798828125, -0.058746337890625, -0.07171630859375, -0.0797271728515625, -0.089263916015625, -0.098419189453125, -0.0965118408203125, -0.0946044921875, -0.08697509765625, -0.0782012939453125, -0.074005126953125, -0.067901611328125, -0.0705718994140625, -0.0652313232421875, -0.05950927734375, -0.067138671875, -0.06866455078125, -0.070953369140625, -0.0698089599609375, -0.0705718994140625, -0.0789642333984375, -0.075531005859375, -0.0774383544921875, -0.0797271728515625, -0.07781982421875, -0.0823974609375, -0.0732421875, -0.0720977783203125, -0.08087158203125, -0.0797271728515625, -0.083160400390625, -0.0728607177734375, -0.060272216796875, -0.05645751953125, -0.048065185546875, -0.042724609375, -0.03662109375, -0.0385284423828125, -0.0518798828125, -0.0579833984375, -0.0629425048828125, -0.0576019287109375, -0.0553131103515625, -0.0583648681640625, -0.06103515625, -0.0946044921875, 0.0057220458984375, 0.3429412841796875, 0.6744384765625, 0.9792327880859375, 1.0860443115234375, 0.5786895751953125, 0.048828125, 0.00762939453125, 0.0034332275390625, -0.0484466552734375, -0.0457763671875, -0.0804901123046875, -0.101470947265625, -0.099945068359375, -0.10528564453125, -0.091552734375, -0.0698089599609375, -0.0637054443359375, -0.0591278076171875, -0.063323974609375, -0.0667572021484375, -0.0537872314453125, -0.03509521484375, -0.011444091796875, 0.014495849609375, 0.0362396240234375, 0.055694580078125, 0.0629425048828125, 0.0644683837890625, 0.0583648681640625, 0.0453948974609375, 0.035858154296875]}
{"type": "ecg", "timestamp": 147, "samplenum": 148, "frequency:": 128, "heartrate": 98, "period": 609, "status": 1, "samples": [0.01983642578125, 0.011444091796875, 0.0049591064453125, -0.0030517578125, -0.008392333984375, -0.026702880859375, -0.045013427734375, -0.0522613525390625, -0.060272216796875, -0.0637054443359375, -0.0637054443359375, -0.05645751953125, -0.04730224609375, -0.049591064453125, -0.0545501708984375, -0.0576019287109375, -0.0576019287109375, -0.054168701171875, -0.0568389892578125, -0.05950927734375, -0.0659942626953125, -0.0705718994140625, -0.0698089599609375, -0.0751495361328125, -0.079345703125, -0.084686279296875, -0.0896453857421875, -0.08697509765625, -0.0919342041015625, -0.096893310546875, -0.1056671142578125, -0.110626220703125, -0.0949859619140625, -0.0885009765625, -0.092315673828125, -0.086212158203125, -0.080108642578125, -0.083160400390625, -0.099945068359375, -0.10986328125, -0.115203857421875, -0.1216888427734375, -0.11444091796875, -0.119781494140625, -0.11749267578125, -0.12969970703125, -0.1373291015625, 0.077056884765625, 0.44097900390625, 0.7328033447265625, 0.9426116943359375, 0.7266998291015625, 0.12664794921875, -0.1232147216796875, -0.0823974609375, -0.12359619140625, -0.1453399658203125, -0.14801025390625, -0.1682281494140625, -0.1739501953125, -0.1708984375, -0.160980224609375, -0.1499176025390625, -0.1468658447265625, -0.14190673828125, -0.131988525390625, -0.1316070556640625, -0.121307373046875, -0.104522705078125, -0.0949859619140625, -0.0732421875, -0.0530242919921875, -0.0377655029296875, -0.022125244140625, -0.020599365234375, -0.0213623046875, -0.0244140625, -0.0370025634765625, -0.0492095947265625, -0.0545501708984375, -0.0545501708984375, -0.0606536865234375, -0.064849853515625, -0.0713348388671875, -0.089263916015625, -0.0988006591796875, -0.10833740234375, -0.1125335693359375, -0.1041412353515625, -0.1026153564453125, -0.099945068359375, -0.0957489013671875, -0.0926971435546875, -0.08697509765625, -0.0858306884765625, -0.080108642578125, -0.080108642578125, -0.083160400390625, -0.078582763671875, -0.0812530517578125, -0.083160400390625, -0.0865936279296875, -0.0942230224609375, -0.089263916015625, -0.0896453857421875, -0.09002685546875, -0.0946044921875, -0.109100341796875, -0.09918212890625, -0.0865936279296875, -0.0896453857421875, -0.0843048095703125, -0.080108642578125, -0.0766754150390625, -0.077056884765625, -0.08544921875, -0.090789794921875, -0.096893310546875, -0.09765625, -0.09613037109375, -0.09613037109375, -0.0881195068359375, -0.099945068359375, -0.115203857421875, 0.0335693359375, 0.3871917724609375, 0.722503662109375, 0.968170166015625]}
{"type": "ecg", "timestamp": 148, "samplenum": 149, "frequency:": 128, "heartrate": 98, "period": 609, "status": 1, "samples": [0.9067535400390625, 0.356292724609375, -0.03662109375, -0.0301361083984375, -0.0518798828125, -0.0812530517578125, -0.08087158203125, -0.115203857421875, -0.1209259033203125, -0.12054443359375, -0.1178741455078125, -0.101470947265625, -0.0843048095703125, -0.0713348388671875, -0.0762939453125, -0.0782012939453125, -0.0701904296875, -0.06561279296875, -0.0518798828125, -0.03509521484375, -0.014495849609375, 0.008392333984375, 0.016021728515625, 0.022125244140625, 0.01983642578125, 0.0057220458984375, -0.0019073486328125, -0.016021728515625, -0.0202178955078125, -0.0156402587890625, -0.017547607421875, -0.018310546875, -0.0263214111328125, -0.03814697265625, -0.0499725341796875, -0.06103515625, -0.0652313232421875, -0.069427490234375, -0.0659942626953125, -0.0614166259765625, -0.064849853515625, -0.0591278076171875, -0.0606536865234375, -0.0644683837890625, -0.054931640625, -0.057220458984375, -0.06561279296875, -0.069427490234375, -0.0720977783203125, -0.0736236572265625, -0.0820159912109375, -0.084686279296875, -0.087738037109375, -0.0957489013671875, -0.09918212890625, -0.1049041748046875, -0.110626220703125, -0.1220703125, -0.1239776611328125, -0.1110076904296875, -0.10986328125, -0.1094818115234375, -0.1041412353515625, -0.1056671142578125, -0.1102447509765625, -0.1255035400390625, -0.133514404296875, -0.138092041015625, -0.1438140869140625, -0.141143798828125, -0.147247314453125, -0.1430511474609375, -0.1644134521484375, -0.131988525390625, 0.144195556640625, 0.5035400390625, 0.8007049560546875, 0.9998321533203125, 0.7022857666015625, 0.12054443359375, -0.0751495361328125, -0.0591278076171875, -0.09918212890625, -0.113677978515625, -0.1312255859375, -0.1613616943359375, -0.1766204833984375, -0.179290771484375, -0.1689910888671875, -0.140380859375, -0.1087188720703125, -0.0957489013671875, -0.0946044921875, -0.1026153564453125, -0.10223388671875, -0.098419189453125, -0.0888824462890625, -0.067901611328125, -0.0537872314453125, -0.0392913818359375, -0.0274658203125, -0.0286102294921875, -0.02899169921875, -0.040435791015625, -0.052642822265625, -0.0579833984375, -0.06256103515625, -0.0560760498046875, -0.0499725341796875, -0.0537872314453125, -0.0614166259765625, -0.0713348388671875, -0.077056884765625, -0.084686279296875, -0.0885009765625, -0.0827789306640625, -0.07781982421875, -0.069427490234375, -0.072479248046875, -0.0782012939453125, -0.0720977783203125, -0.0762939453125, -0.0751495361328125, -0.0705718994140625, -0.07171630859375, -0.06561279296875, -0.06256103515625, -0.058746337890625]}
{"type": "ecg", "timestamp": 149, "samplenum": 150, "frequency:": 128, "heartrate": 97, "period": 617, "status": 1, "samples": [-0.054168701171875, -0.054931640625, -0.05340576171875, -0.0637054443359375, -0.07476806640625, -0.081634521484375, -0.095367431640625, -0.101470947265625, -0.0988006591796875, -0.0873565673828125, -0.0804901123046875, -0.0827789306640625, -0.070953369140625, -0.0644683837890625, -0.07476806640625, -0.0835418701171875, -0.09002685546875, -0.08697509765625, -0.0797271728515625, -0.0782012939453125, -0.074005126953125, -0.080108642578125, -0.106048583984375, -0.0118255615234375, 0.3093719482421875, 0.640869140625, 0.9006500244140625, 1.0135650634765625, 0.60577392578125, 0.074005126953125, -0.019073486328125, -0.0118255615234375, -0.06103515625, -0.0652313232421875, -0.0919342041015625, -0.113677978515625, -0.1251220703125, -0.13275146484375, -0.116729736328125, -0.0965118408203125, -0.077056884765625, -0.0675201416015625, -0.0659942626953125, -0.0698089599609375, -0.0713348388671875, -0.0629425048828125, -0.061798095703125, -0.0457763671875, -0.0164031982421875, 0.00152587890625, 0.0194549560546875, 0.026702880859375, 0.0194549560546875, 0.0110626220703125, -0.005340576171875, -0.0125885009765625, -0.0118255615234375, -0.0156402587890625, -0.019073486328125, -0.029754638671875, -0.038909912109375, -0.046539306640625, -0.0579833984375, -0.06561279296875, -0.0705718994140625, -0.067138671875, -0.0644683837890625, -0.0659942626953125, -0.05950927734375, -0.0598907470703125, -0.05950927734375, -0.055694580078125, -0.06103515625, -0.0629425048828125, -0.067901611328125, -0.07476806640625, -0.0713348388671875, -0.07476806640625, -0.0797271728515625, -0.0835418701171875, -0.0823974609375, -0.0766754150390625, -0.080108642578125, -0.0789642333984375, -0.081634521484375, -0.0942230224609375, -0.0965118408203125, -0.092315673828125, -0.080108642578125, -0.07781982421875, -0.079345703125, -0.06561279296875, -0.0640869140625, -0.0732421875, -0.0820159912109375, -0.09002685546875, -0.084686279296875, -0.0797271728515625, -0.0774383544921875, -0.069427490234375, -0.086212158203125, -0.086212158203125, 0.1220703125, 0.4871368408203125, 0.7823944091796875, 1.0341644287109375, 0.9372711181640625, 0.347900390625, 0.0057220458984375, 0.0232696533203125, -0.0244140625, -0.055694580078125, -0.063323974609375, -0.0965118408203125, -0.110626220703125, -0.1312255859375, -0.1331329345703125, -0.1186370849609375, -0.1026153564453125, -0.079345703125, -0.0701904296875, -0.0690460205078125, -0.0690460205078125, -0.0659942626953125, -0.052642822265625, -0.0396728515625, -0.018310546875, 0.0003814697265625]}
{"type": "ecg", "timestamp": 150, "samplenum": 151, "frequency:": 128, "heartrate": 99, "period": 601, "status": 1, "samples": [0.0087738037109375, 0.0213623046875, 0.0171661376953125, 0.0091552734375, 0.002288818359375, -0.014495849609375, -0.018310546875, -0.0141143798828125, -0.0171661376953125, -0.0247955322265625, -0.038909912109375, -0.052642822265625, -0.058746337890625, -0.0640869140625, -0.0736236572265625, -0.0743865966796875, -0.06561279296875, -0.06561279296875, -0.0690460205078125, -0.06561279296875, -0.0682830810546875, -0.0659942626953125, -0.0659942626953125, -0.072479248046875, -0.0751495361328125, -0.0789642333984375, -0.081634521484375, -0.08392333984375, -0.0850677490234375, -0.086212158203125, -0.093841552734375, -0.091552734375, -0.0858306884765625, -0.0873565673828125, -0.0843048095703125, -0.0881195068359375, -0.0942230224609375, -0.09002685546875, -0.080108642578125, -0.0713348388671875, -0.0736236572265625, -0.0644683837890625, -0.0492095947265625, -0.0553131103515625, -0.0553131103515625, -0.06256103515625, -0.0751495361328125, -0.0705718994140625, -0.0728607177734375, -0.0732421875, -0.066375732421875, -0.0919342041015625, -0.0213623046875, 0.2887725830078125, 0.62255859375, 0.89263916015625, 1.073455810546875, 0.689697265625, 0.090789794921875, -0.0102996826171875, 0.0171661376953125, -0.0438690185546875, -0.0392913818359375, -0.063323974609375, -0.0885009765625, -0.0934600830078125, -0.1110076904296875, -0.1071929931640625, -0.0881195068359375, -0.0637054443359375, -0.04425048828125, -0.0324249267578125, -0.0213623046875, -0.019073486328125, -0.0152587890625, -0.0034332275390625, 0.0194549560546875, 0.04425048828125, 0.052642822265625, 0.0629425048828125, 0.0698089599609375, 0.0598907470703125, 0.05340576171875, 0.045013427734375, 0.040435791015625, 0.043487548828125, 0.038909912109375, 0.040435791015625, 0.0331878662109375, 0.0141143798828125, 0.0034332275390625, -0.011444091796875, -0.0194549560546875, -0.018310546875, -0.0186920166015625, -0.011444091796875, -0.0095367431640625, -0.0110626220703125, -0.014495849609375, -0.0217437744140625, -0.020599365234375, -0.025177001953125, -0.030517578125, -0.03204345703125, -0.041961669921875, -0.0415802001953125, -0.0461578369140625, -0.0579833984375, -0.0530242919921875, -0.0553131103515625, -0.0652313232421875, -0.069427490234375, -0.06866455078125, -0.0720977783203125, -0.0827789306640625, -0.0720977783203125, -0.0579833984375, -0.057220458984375, -0.052642822265625, -0.0499725341796875, -0.046539306640625, -0.0499725341796875, -0.0637054443359375, -0.0698089599609375, -0.0732421875, -0.0675201416015625, -0.06256103515625, -0.0644683837890625]}
{"type": "ecg", "timestamp": 151, "samplenum": 152, "frequency:": 128, "heartrate": 99, "period": 601, "status": 1, "samples": [-0.061798095703125, -0.08544921875, 0.0011444091796875, 0.333404541015625, 0.6618499755859375, 0.91705322265625, 1.025390625, 0.54473876953125, -0.01983642578125, -0.0553131103515625, -0.02899169921875, -0.0885009765625, -0.075531005859375, -0.0896453857421875, -0.1190185546875, -0.121307373046875, -0.12664794921875, -0.12054443359375, -0.095367431640625, -0.0827789306640625, -0.0759124755859375, -0.0728607177734375, -0.072479248046875, -0.0606536865234375, -0.0484466552734375, -0.0274658203125, -0.0049591064453125, 0.0141143798828125, 0.0347137451171875, 0.0423431396484375, 0.0431060791015625, 0.0362396240234375, 0.018310546875, 0.00762939453125, 0.000762939453125, -0.0011444091796875, -0.006103515625, -0.0171661376953125, -0.0213623046875, -0.038909912109375, -0.0621795654296875, -0.0720977783203125, -0.077056884765625, -0.0759124755859375, -0.0675201416015625, -0.0652313232421875, -0.069427490234375, -0.0732421875, -0.067901611328125, -0.064849853515625, -0.0667572021484375, -0.067901611328125, -0.0732421875, -0.072479248046875, -0.075531005859375, -0.08544921875, -0.0885009765625, -0.0896453857421875, -0.0904083251953125, -0.095367431640625, -0.1026153564453125, -0.10223388671875, -0.1079559326171875, -0.1125335693359375, -0.1071929931640625, -0.0980377197265625, -0.09002685546875, -0.0885009765625, -0.0782012939453125, -0.069427490234375, -0.0759124755859375, -0.08087158203125, -0.0904083251953125, -0.09002685546875, -0.0789642333984375, -0.0774383544921875, -0.0690460205078125, -0.067138671875, -0.0972747802734375, -0.052642822265625, 0.2349853515625, 0.6069183349609375, 0.8800506591796875, 1.035308837890625, 0.6740570068359375, 0.0640869140625, -0.05950927734375, -0.011444091796875, -0.05645751953125, -0.045013427734375, -0.06256103515625, -0.0865936279296875, -0.08697509765625, -0.09002685546875, -0.078582763671875, -0.0640869140625, -0.048828125, -0.0415802001953125, -0.04119873046875, -0.03204345703125, -0.02288818359375, -0.0019073486328125, 0.0202178955078125, 0.0423431396484375, 0.0675201416015625, 0.0835418701171875, 0.1010894775390625, 0.1117706298828125, 0.116729736328125, 0.1209259033203125, 0.1110076904296875, 0.107574462890625, 0.1033782958984375, 0.096893310546875, 0.09918212890625, 0.0911712646484375, 0.0835418701171875, 0.0835418701171875, 0.0843048095703125, 0.091552734375, 0.09918212890625, 0.1087188720703125, 0.1140594482421875, 0.118255615234375, 0.1255035400390625, 0.1224517822265625, 0.124359130859375, 0.13427734375]}
{"type": "ecg", "timestamp": 152, "samplenum": 153, "frequency:": 128, "heartrate": 192, "period": 312, "status": 1, "samples": [0.1430511474609375, 0.151824951171875, 0.1514434814453125, 0.1514434814453125, 0.1483917236328125, 0.142669677734375, 0.146484375, 0.13885498046875, 0.12664794921875, 0.1125335693359375, 0.0881195068359375, 0.072479248046875, 0.0652313232421875, 0.066375732421875, 0.0644683837890625, 0.048828125, 0.04730224609375, 0.0396728515625, 0.014495849609375, -0.0110626220703125, -0.042724609375, -0.06866455078125, -0.087738037109375, -0.095367431640625, -0.0957489013671875, -0.0972747802734375, -0.0972747802734375, -0.1125335693359375, 0.0118255615234375, 0.3520965576171875, 0.673675537109375, 0.9761810302734375, 1.0219573974609375, 0.458526611328125, -0.01678466796875, -0.0270843505859375, -0.03814697265625, -0.0743865966796875, -0.0804901123046875, -0.1190185546875, -0.152587890625, -0.164031982421875, -0.162506103515625, -0.164794921875, -0.1491546630859375, -0.1499176025390625, -0.1705169677734375, -0.15411376953125, -0.1239776611328125, -0.0988006591796875, -0.0690460205078125, -0.03509521484375, -0.0030517578125, 0.009918212890625, 0.0156402587890625, 0.0156402587890625, 0.0064849853515625, -0.0164031982421875, -0.04730224609375, -0.0568389892578125, -0.067901611328125, -0.0881195068359375, -0.09765625, -0.1155853271484375, -0.1483917236328125, -0.1857757568359375, -0.2254486083984375, -0.255584716796875, -0.2925872802734375, -0.32958984375, -0.3582000732421875, -0.4245758056640625, -0.5245208740234375, -0.6351470947265625, -0.7984161376953125, -0.96893310546875, -1.0875701904296875, -1.1898040771484375, -1.26953125, -1.3248443603515625, -1.375579833984375, -1.4057159423828125, -1.3797760009765625, -1.2973785400390625, -1.200103759765625, -1.07879638671875, -0.968170166015625, -0.862884521484375, -0.716400146484375, -0.5817413330078125, -0.4451751708984375, -0.29449462890625, -0.1667022705078125, -0.0453948974609375, 0.063323974609375, 0.14801025390625, 0.2048492431640625, 0.2567291259765625, 0.30670166015625, 0.3360748291015625, 0.3604888916015625, 0.3620147705078125, 0.3482818603515625, 0.32806396484375, 0.341796875, 0.5878448486328125, 0.9510040283203125, 1.213836669921875, 1.4324188232421875, 1.239776611328125, 0.684356689453125, 0.5039215087890625, 0.585174560546875, 0.5828857421875, 0.5878448486328125, 0.5706787109375, 0.5443572998046875, 0.551605224609375, 0.563812255859375, 0.5706787109375, 0.58441162109375, 0.5977630615234375, 0.5950927734375, 0.5962371826171875, 0.59967041015625, 0.6031036376953125, 0.6099700927734375, 0.6103515625]}
{"type": "ecg", "timestamp": 153, "samplenum": 154, "frequency:": 128, "heartrate": 106, "period": 562, "status": 1, "samples": [0.614166259765625, 0.616455078125, 0.6145477294921875, 0.611114501953125, 0.59967041015625, 0.615692138671875, 0.647735595703125, 0.6786346435546875, 0.73394775390625, 0.803375244140625, 0.8937835693359375, 1.00555419921875, 1.100921630859375, 1.166534423828125, 1.2027740478515625, 1.24664306640625, 1.335906982421875, 1.444244384765625, 1.54571533203125, 1.6574859619140625, 1.811981201171875, 1.9439697265625, 1.9893646240234375, 1.9687652587890625, 1.8924713134765625, 1.79901123046875, 1.7059326171875, 1.6262054443359375, 1.6399383544921875, 1.721954345703125, 1.8238067626953125, 1.9412994384765625, 2.002716064453125, 2.0050048828125, 1.9924163818359375, 1.9634246826171875, 1.91650390625, 1.8413543701171875, 1.757049560546875, 1.691436767578125, 1.6254425048828125, 1.5331268310546875, 1.42822265625, 1.3469696044921875, 1.2317657470703125, 1.055145263671875, 0.8693695068359375, 0.661468505859375, 0.4566192626953125, 0.3147125244140625, 0.223541259765625, 0.2674102783203125, 0.537872314453125, 0.8945465087890625, 1.2180328369140625, 1.4522552490234375, 1.3713836669921875, 1.197052001953125, 1.2905120849609375, 1.375579833984375, 1.3332366943359375, 1.2729644775390625, 1.187896728515625, 1.1913299560546875, 1.2725830078125, 1.371002197265625, 1.51824951171875, 1.6643524169921875, 1.82037353515625, 2.00347900390625, 2.1823883056640625, 2.382659912109375, 2.5592803955078125, 2.7019500732421875, 2.8453826904296875, 2.97698974609375, 3.1131744384765625, 3.23944091796875, 3.350067138671875, 3.4328460693359375, 3.4454345703125, 3.39202880859375, 3.2749176025390625, 3.13568115234375, 2.9567718505859375, 2.7118682861328125, 2.4135589599609375, 1.96685791015625, 1.47705078125, 1.050567626953125, 0.64849853515625, 0.421142578125, 0.3383636474609375, 0.1842498779296875, -0.0255584716796875, -0.21514892578125, -0.5062103271484375, -0.9624481201171875, -1.3774871826171875, -1.69219970703125, -2.0191192626953125, -2.294158935546875, -2.4257659912109375, -2.468109130859375, -2.5482177734375, -2.6611328125, -2.651214599609375, -2.5836944580078125, -2.520751953125, -2.3387908935546875, -2.086639404296875, -1.8341064453125, -1.64794921875, -1.4987945556640625, -1.2958526611328125, -1.172637939453125, -1.0967254638671875, -1.0234832763671875, -1.0467529296875, -1.1028289794921875, -1.1260986328125, -1.0990142822265625, -1.0761260986328125, -1.0601043701171875, -0.977325439453125, -0.791168212890625, -0.4245758056640625, -0.067901611328125]}
{"type": "ecg", "timestamp": 154, "samplenum": 155, "frequency:": 128, "heartrate": 109, "period": 546, "status": 1, "samples": [0.1598358154296875, 0.278472900390625, 0.130462646484375, 0.128173828125, 0.4970550537109375, 0.8472442626953125, 1.1932373046875, 1.48162841796875, 1.654052734375, 1.863861083984375, 2.014923095703125, 2.117919921875, 2.2083282470703125, 2.223968505859375, 2.1892547607421875, 2.1297454833984375, 2.0885467529296875, 2.0092010498046875, 1.914215087890625, 1.8733978271484375, 1.8054962158203125, 1.758575439453125, 1.7330169677734375, 1.6841888427734375, 1.6910552978515625, 1.6963958740234375, 1.7246246337890625, 1.805877685546875, 1.8802642822265625, 1.9962310791015625, 2.101898193359375, 2.187347412109375, 2.2663116455078125, 2.2930145263671875, 2.32391357421875, 2.324676513671875, 2.297210693359375, 2.2808074951171875, 2.2197723388671875, 2.1610260009765625, 2.0824432373046875, 1.9855499267578125, 1.921844482421875, 1.8405914306640625, 1.801300048828125, 1.7772674560546875, 1.7292022705078125, 1.7269134521484375, 1.7124176025390625, 1.7032623291015625, 1.708221435546875, 1.689910888671875, 1.690673828125, 1.666259765625, 1.6326904296875, 1.6063690185546875, 1.5537261962890625, 1.5132904052734375, 1.4495849609375, 1.3885498046875, 1.3408660888671875, 1.26190185546875, 1.198577880859375, 1.1260986328125, 1.0578155517578125, 1.0120391845703125, 0.942230224609375, 0.9098052978515625, 0.8758544921875, 0.8235931396484375, 0.90789794921875, 1.1463165283203125, 1.33819580078125, 1.380157470703125, 1.2271881103515625, 0.73394775390625, 0.2742767333984375, 0.18768310546875, 0.101470947265625, -0.0644683837890625, -0.19683837890625, -0.384521484375, -0.540924072265625, -0.6542205810546875, -0.7663726806640625, -0.8304595947265625, -0.9159088134765625, -1.0028839111328125, -1.0772705078125, -1.16119384765625, -1.181793212890625, -1.187896728515625, -1.18865966796875, -1.1600494384765625, -1.137542724609375, -1.0982513427734375, -1.090240478515625, -1.0921478271484375, -1.0829925537109375, -1.1104583740234375, -1.1188507080078125, -1.1409759521484375, -1.1814117431640625, -1.204681396484375, -1.2676239013671875, -1.314544677734375, -1.366424560546875, -1.42974853515625, -1.4408111572265625, -1.464080810546875, -1.471710205078125, -1.459503173828125, -1.4461517333984375, -1.39312744140625, -1.361846923828125, -1.311492919921875, -1.2386322021484375, -1.19476318359375, -1.14898681640625, -1.139068603515625, -1.1264801025390625, -1.103973388671875, -1.1112213134765625, -1.09405517578125, -1.096343994140625, -1.113128662109375, -1.119232177734375, -1.1402130126953125]}
{"type": "ecg", "timestamp": 155, "samplenum": 156, "frequency:": 128, "heartrate": 108, "period": 554, "status": 1, "samples": [-1.139068603515625, -1.1478424072265625, -1.1379241943359375, -1.10626220703125, -1.1127471923828125, -1.123809814453125, -1.1730194091796875, -1.233673095703125, -1.2760162353515625, -1.354217529296875, -1.4225006103515625, -1.476287841796875, -1.5155792236328125, -1.488494873046875, -1.3080596923828125, -1.0021209716796875, -0.8121490478515625, -0.756072998046875, -1.0406494140625, -1.6544342041015625, -1.911163330078125, -1.9161224365234375, -2.0359039306640625, -2.1045684814453125, -2.1595001220703125, -2.191925048828125, -2.173614501953125, -2.158355712890625, -2.0961761474609375, -2.0343780517578125, -1.9756317138671875, -1.898193359375, -1.8329620361328125, -1.7429351806640625, -1.657867431640625, -1.5705108642578125, -1.4545440673828125, -1.3599395751953125, -1.26800537109375, -1.18408203125, -1.1241912841796875, -1.0768890380859375, -1.090240478515625, -1.128387451171875, -1.149749755859375, -1.1600494384765625, -1.1585235595703125, -1.1646270751953125, -1.15814208984375, -1.143646240234375, -1.143646240234375, -1.1341094970703125, -1.128387451171875, -1.134490966796875, -1.13983154296875, -1.1432647705078125, -1.1440277099609375, -1.16119384765625, -1.16424560546875, -1.15966796875, -1.1592864990234375, -1.1280059814453125, -1.0951995849609375, -1.0498046875, -0.9891510009765625, -0.9464263916015625, -0.88653564453125, -0.8281707763671875, -0.771331787109375, -0.6961822509765625, -0.6290435791015625, -0.5550384521484375, -0.4718780517578125, -0.3826141357421875, -0.29449462890625, -0.2300262451171875, -0.1499176025390625, -0.0732421875, -0.0087738037109375, 0.0698089599609375, 0.1308441162109375, 0.200653076171875, 0.26397705078125, 0.3421783447265625, 0.6076812744140625, 0.9685516357421875, 1.177215576171875, 1.263427734375, 1.11236572265625, 0.7930755615234375, 0.8563995361328125, 1.1505126953125, 1.25579833984375, 1.3347625732421875, 1.430511474609375, 1.4690399169921875, 1.512908935546875, 1.5625, 1.618194580078125, 1.696014404296875, 1.7650604248046875, 1.8390655517578125, 1.9199371337890625, 1.9992828369140625, 2.0793914794921875, 2.085113525390625, 2.0412445068359375, 2.0008087158203125, 1.94244384765625, 1.8840789794921875, 1.8169403076171875, 1.7482757568359375, 1.6811370849609375, 1.6002655029296875, 1.5445709228515625, 1.4892578125, 1.4072418212890625, 1.290130615234375, 1.120758056640625, 0.9540557861328125, 0.778961181640625, 0.5939483642578125, 0.3902435302734375, 0.075531005859375, -0.2666473388671875, -0.5611419677734375, -0.8182525634765625, -0.9899139404296875]}
{"type": "ecg", "timestamp": 156, "samplenum": 157, "frequency:": 128, "heartrate": 56, "period": 1054, "status": 1, "samples": [-1.107025146484375, -1.174163818359375, -1.169586181640625, -1.092529296875, -0.914764404296875, -0.6717681884765625, -0.380706787109375, -0.133514404296875, -0.026702880859375, 0.0331878662109375, 0.0736236572265625, 0.0667572021484375, 0.0438690185546875, -0.002288818359375, -0.0179290771484375, 0.002288818359375, 0.0244140625, 0.08392333984375, 0.16326904296875, 0.255584716796875, 0.3711700439453125, 0.4791259765625, 0.576019287109375, 0.6561279296875, 0.804901123046875, 1.1386871337890625, 1.4835357666015625, 1.7108917236328125, 1.7948150634765625, 1.5125274658203125, 1.17950439453125, 1.21002197265625, 1.316070556640625, 1.3713836669921875, 1.4659881591796875, 1.541900634765625, 1.6204833984375, 1.69219970703125, 1.679229736328125, 1.580047607421875, 1.4179229736328125, 1.2054443359375, 0.9929656982421875, 0.7770538330078125, 0.5859375, 0.4547119140625, 0.3406524658203125, 0.24261474609375, 0.15411376953125, 0.0518798828125, -0.121307373046875, -0.37384033203125, -0.67596435546875, -1.0982513427734375, -1.5758514404296875, -2.1144866943359375, -2.7557373046875, -3.1856536865234375, -3.337860107421875, -3.3664703369140625, -3.2604217529296875, -3.0460357666015625, -2.661895751953125, -2.1610260009765625, -1.631927490234375, -1.0036468505859375, -0.3879547119140625, 0.1720428466796875, 0.7259368896484375, 1.2302398681640625, 1.6872406005859375, 2.053070068359375, 2.3845672607421875, 2.7095794677734375, 2.9338836669921875, 3.094482421875, 3.2047271728515625, 3.2867431640625, 3.3710479736328125, 3.4313201904296875, 3.5060882568359375, 3.5491943359375, 3.560638427734375, 3.624725341796875, 3.7075042724609375, 3.8036346435546875, 3.8860321044921875, 3.93829345703125, 3.99627685546875, 4.02069091796875, 4.0500640869140625, 4.1271209716796875, 4.293060302734375, 4.5162200927734375, 4.6199798583984375, 4.703521728515625, 4.75616455078125, 4.5070648193359375, 3.971099853515625, 2.8957366943359375, 0.823211669921875, -1.94244384765625, -4.511260986328125, -6.290435791015625, -7.3024749755859375, -7.63702392578125, -7.51800537109375, -7.245635986328125, -6.7310333251953125, -6.0108184814453125, -5.1807403564453125, -4.282379150390625, -3.427886962890625, -2.5905609130859375, -1.869964599609375, -1.25885009765625, -0.7091522216796875, -0.3078460693359375, 0.0514984130859375, 0.37841796875, 0.653076171875, 0.894927978515625, 1.0364532470703125, 1.1470794677734375, 1.222991943359375, 1.214599609375, 1.090240478515625, 0.836181640625]}
{"type": "ecg", "timestamp": 157, "samplenum": 158, "frequency:": 128, "heartrate": 109, "period": 546, "status": 1, "samples": [0.6206512451171875, 0.47149658203125, 0.3948211669921875, 0.4261016845703125, 0.4177093505859375, 0.3955841064453125, 0.3726959228515625, 0.2857208251953125, 0.228118896484375, 0.1720428466796875, 0.1178741455078125, 0.092315673828125, 0.066375732421875, 0.06866455078125, 0.0225067138671875, -0.0392913818359375, -0.0988006591796875, -0.228118896484375, -0.3376007080078125, -0.4360198974609375, -0.5229949951171875, -0.5615234375, -0.6069183349609375, -0.6183624267578125, -0.62713623046875, -0.6473541259765625, -0.6305694580078125, -0.63018798828125, -0.6000518798828125, -0.5634307861328125, -0.54779052734375, -0.371551513671875, -0.0751495361328125, 0.156402587890625, 0.3253936767578125, 0.254058837890625, -0.103759765625, -0.2803802490234375, -0.1964569091796875, -0.1567840576171875, -0.147247314453125, -0.1079559326171875, -0.081634521484375, -0.0217437744140625, 0.0789642333984375, 0.1651763916015625, 0.244140625, 0.3017425537109375, 0.360870361328125, 0.445556640625, 0.52642822265625, 0.63934326171875, 0.7671356201171875, 0.9052276611328125, 1.078033447265625, 1.2454986572265625, 1.4148712158203125, 1.5392303466796875, 1.5888214111328125, 1.604461669921875, 1.5628814697265625, 1.4923095703125, 1.416015625, 1.3500213623046875, 1.343536376953125, 1.348114013671875, 1.37176513671875, 1.425933837890625, 1.53045654296875, 1.7303466796875, 1.83258056640625, 1.7436981201171875, 1.56402587890625, 1.2790679931640625, 0.9246826171875, 0.56304931640625, 0.2132415771484375, -0.1346588134765625, -0.50201416015625, -0.8380889892578125, -1.128387451171875, -1.371002197265625, -1.543426513671875, -1.6384124755859375, -1.6826629638671875, -1.7375946044921875, -1.795196533203125, -1.8310546875, -1.8650054931640625, -1.8917083740234375, -1.9229888916015625, -1.9535064697265625, -1.9519805908203125, -1.935577392578125, -1.8764495849609375, -1.8009185791015625, -1.7574310302734375, -1.61895751953125, -1.2950897216796875, -0.943756103515625, -0.6885528564453125, -0.55694580078125, -0.7320404052734375, -0.9857177734375, -0.91705322265625, -0.7663726806640625, -0.6855010986328125, -0.5645751953125, -0.43487548828125, -0.2902984619140625, -0.1514434814453125, -0.063323974609375, 0.0041961669921875, 0.0621795654296875, 0.122833251953125, 0.205230712890625, 0.2899169921875, 0.3787994384765625, 0.4619598388671875, 0.5382537841796875, 0.6221771240234375, 0.693511962890625, 0.763702392578125, 0.830841064453125, 0.885009765625, 0.945281982421875, 0.9998321533203125, 1.0585784912109375]}
{"type": "ecg", "timestamp": 158, "samplenum": 159, "frequency:": 128, "heartrate": 109, "period": 546, "status": 1, "samples": [1.1188507080078125, 1.175689697265625, 1.242828369140625, 1.28936767578125, 1.3214111328125, 1.345062255859375, 1.3675689697265625, 1.404571533203125, 1.3973236083984375, 1.37481689453125, 1.372528076171875, 1.33819580078125, 1.3126373291015625, 1.282501220703125, 1.233673095703125, 1.1890411376953125, 1.1383056640625, 1.131439208984375, 1.137542724609375, 1.116180419921875, 1.104736328125, 1.082611083984375, 1.0467529296875, 1.0005950927734375, 0.9471893310546875, 0.9128570556640625, 0.8686065673828125, 0.81024169921875, 0.7358551025390625, 0.64239501953125, 0.5596160888671875, 0.4817962646484375, 0.4291534423828125, 0.395965576171875, 0.3448486328125, 0.3993988037109375, 0.649261474609375, 0.920867919921875, 1.1383056640625, 1.274871826171875, 1.0986328125, 0.8686065673828125, 0.96435546875, 1.14898681640625, 1.3423919677734375, 1.665496826171875, 2.2022247314453125, 2.9750823974609375, 3.533172607421875, 3.5556793212890625, 3.322601318359375, 3.0620574951171875, 2.7400970458984375, 2.39105224609375, 2.0721435546875, 1.7734527587890625, 1.4904022216796875, 1.21917724609375, 0.9510040283203125, 0.6824493408203125, 0.41351318359375, 0.1522064208984375, -0.1010894775390625, -0.327301025390625, -0.5279541015625, -0.69732666015625, -0.820159912109375, -0.9159088134765625, -0.9796142578125, -1.0162353515625, -1.0433197021484375, -1.06353759765625, -1.0829925537109375, -1.0944366455078125, -1.1081695556640625, -1.100921630859375, -1.06658935546875, -1.053619384765625, -1.0295867919921875, -0.970458984375, -0.91705322265625, -0.8686065673828125, -0.824737548828125, -0.7785797119140625, -0.7289886474609375, -0.682830810546875, -0.6317138671875, -0.585174560546875, -0.540924072265625, -0.5031585693359375, -0.4669189453125, -0.4276275634765625, -0.3936767578125, -0.3612518310546875, -0.3475189208984375, -0.34027099609375, -0.3154754638671875, -0.3032684326171875, -0.2819061279296875, -0.254058837890625, -0.237274169921875, -0.0934600830078125, 0.2185821533203125, 0.48675537109375, 0.638580322265625, 0.6134033203125, 0.2651214599609375, -0.0400543212890625, -0.017547607421875, 0.0156402587890625, -0.0202178955078125, -0.0209808349609375, -0.0152587890625, 0.0263214111328125, 0.06561279296875, 0.0553131103515625, 0.0431060791015625, 0.030517578125, 0.03509521484375, 0.0621795654296875, 0.092315673828125, 0.148773193359375, 0.176239013671875, 0.1800537109375, 0.20294189453125, 0.2109527587890625, 0.2391815185546875, 0.2819061279296875]}
{"type": "ecg", "timestamp": 159, "samplenum": 160, "frequency:": 128, "heartrate": 112, "period": 531, "status": 1, "samples": [0.3261566162109375, 0.3925323486328125, 0.4367828369140625, 0.4703521728515625, 0.4726409912109375, 0.4337310791015625, 0.3742218017578125, 0.2475738525390625, 0.11444091796875, 0.003814697265625, -0.1087188720703125, -0.1834869384765625, -0.2101898193359375, -0.144195556640625, -0.00762939453125, 0.1529693603515625, 0.319671630859375, 0.4276275634765625, 0.49591064453125, 0.5405426025390625, 0.559234619140625, 0.5710601806640625, 0.540924072265625, 0.5096435546875, 0.5138397216796875, 0.5588531494140625, 0.6977081298828125, 0.8983612060546875, 1.104736328125, 1.263427734375, 1.2752532958984375, 1.18560791015625, 1.088714599609375, 0.978851318359375, 0.87127685546875, 0.7755279541015625, 0.690460205078125, 0.6198883056640625, 0.5260467529296875, 0.522613525390625, 0.738525390625, 1.03759765625, 1.352691650390625, 1.6674041748046875, 1.9474029541015625, 2.508544921875, 3.441619873046875, 4.4704437255859375, 5.4706573486328125, 6.2465667724609375, 6.732177734375, 6.8878173828125, 6.6043853759765625, 6.047821044921875, 5.353546142578125, 4.6581268310546875, 4.0924072265625, 3.6518096923828125, 3.3397674560546875, 3.0994415283203125, 2.8949737548828125, 2.716827392578125, 2.55279541015625, 2.42919921875, 2.3227691650390625, 2.2312164306640625, 2.1678924560546875, 2.099609375, 2.0244598388671875, 1.9336700439453125, 1.82647705078125, 1.7368316650390625, 1.6658782958984375, 1.593780517578125, 1.50146484375, 1.39923095703125, 1.297760009765625, 1.1821746826171875, 1.059722900390625, 0.933837890625, 0.81024169921875, 0.701904296875, 0.579833984375, 0.434112548828125, 0.2620697021484375, 0.0514984130859375, -0.177764892578125, -0.42877197265625, -0.720977783203125, -1.055145263671875, -1.4041900634765625, -1.702117919921875, -1.947021484375, -2.1694183349609375, -2.3494720458984375, -2.445220947265625, -2.494049072265625, -2.6103973388671875, -2.7362823486328125, -2.7740478515625, -2.7927398681640625, -2.8240203857421875, -2.8263092041015625, -2.785491943359375, -2.7133941650390625, -2.6275634765625, -2.43682861328125, -2.0687103271484375, -1.7047882080078125, -1.4057159423828125, -1.2187957763671875, -1.3217926025390625, -1.3370513916015625, -1.032257080078125, -0.7350921630859375, -0.481414794921875, -0.2231597900390625, 0.0102996826171875, 0.22735595703125, 0.403594970703125, 0.5451202392578125, 0.63629150390625, 0.6969451904296875, 0.7266998291015625, 0.7152557373046875, 0.7099151611328125, 0.6999969482421875, 0.6805419921875]}
{"type": "ecg", "timestamp": 160, "samplenum": 161, "frequency:": 128, "heartrate": 106, "period": 562, "status": 1, "samples": [0.6526947021484375, 0.60882568359375, 0.5687713623046875, 0.5077362060546875, 0.438690185546875, 0.37078857421875, 0.2834320068359375, 0.2063751220703125, 0.124359130859375, 0.0431060791015625, -0.0244140625, -0.10528564453125, -0.176239013671875, -0.2544403076171875, -0.341033935546875, -0.40435791015625, -0.4669189453125, -0.518035888671875, -0.567626953125, -0.62408447265625, -0.669097900390625, -0.7221221923828125, -0.7640838623046875, -0.8060455322265625, -0.8502960205078125, -0.8724212646484375, -0.9037017822265625, -0.9181976318359375, -0.91705322265625, -0.9258270263671875, -0.9185791015625, -0.9197235107421875, -0.9098052978515625, -0.8907318115234375, -0.8907318115234375, -0.870513916015625, -0.8514404296875, -0.8373260498046875, -0.81787109375, -0.8213043212890625, -0.81634521484375, -0.8121490478515625, -0.8087158203125, -0.7846832275390625, -0.7740020751953125, -0.742340087890625, -0.5657196044921875, -0.2758026123046875, -0.070953369140625, 0.0324249267578125, -0.074005126953125, -0.435638427734375, -0.579833984375, -0.4810333251953125, -0.4657745361328125, -0.446319580078125, -0.4154205322265625, -0.4009246826171875, -0.348663330078125, -0.3143310546875, -0.2880096435546875, -0.2651214599609375, -0.2635955810546875, -0.24261474609375, -0.2201080322265625, -0.1934051513671875, -0.1613616943359375, -0.1434326171875, -0.11138916015625, -0.08697509765625, -0.0598907470703125, -0.022125244140625, -0.006103515625, 0.0179290771484375, 0.03509521484375, 0.04425048828125, 0.0736236572265625, 0.090789794921875, 0.112152099609375, 0.133514404296875, 0.146484375, 0.1659393310546875, 0.16937255859375, 0.1842498779296875, 0.1983642578125, 0.2044677734375, 0.2277374267578125, 0.2300262451171875, 0.232696533203125, 0.2391815185546875, 0.2361297607421875, 0.2460479736328125, 0.2460479736328125, 0.252532958984375, 0.257110595703125, 0.2445220947265625, 0.2513885498046875, 0.2471923828125, 0.2422332763671875, 0.2471923828125, 0.2353668212890625, 0.2384185791015625, 0.2391815185546875, 0.237274169921875, 0.2437591552734375, 0.2384185791015625, 0.246429443359375, 0.2422332763671875, 0.2330780029296875, 0.2292633056640625, 0.2109527587890625, 0.2132415771484375, 0.2155303955078125, 0.211334228515625, 0.20904541015625, 0.2643585205078125, 0.51116943359375, 0.768280029296875, 0.9075164794921875, 0.9578704833984375, 0.644683837890625, 0.2521514892578125, 0.215911865234375, 0.2471923828125, 0.2231597900390625, 0.2101898193359375, 0.19073486328125, 0.1922607421875]}
{"type": "ecg", "timestamp": 161, "samplenum": 162, "frequency:": 128, "heartrate": 97, "period": 617, "status": 1, "samples": [0.197601318359375, 0.2140045166015625, 0.2117156982421875, 0.1972198486328125, 0.1903533935546875, 0.1800537109375, 0.1934051513671875, 0.201416015625, 0.2140045166015625, 0.24261474609375, 0.2422332763671875, 0.2483367919921875, 0.2582550048828125, 0.2605438232421875, 0.26702880859375, 0.2567291259765625, 0.2559661865234375, 0.2498626708984375, 0.23345947265625, 0.2353668212890625, 0.2254486083984375, 0.2178192138671875, 0.2056121826171875, 0.182342529296875, 0.1766204833984375, 0.1621246337890625, 0.1567840576171875, 0.156402587890625, 0.14495849609375, 0.1453399658203125, 0.1323699951171875, 0.1270294189453125, 0.128936767578125, 0.118255615234375, 0.1220703125, 0.1140594482421875, 0.1064300537109375, 0.1087188720703125, 0.0949859619140625, 0.0946044921875, 0.08697509765625, 0.0797271728515625, 0.0827789306640625, 0.069427490234375, 0.066375732421875, 0.0579833984375, 0.0453948974609375, 0.0530242919921875, 0.0457763671875, 0.0484466552734375, 0.05340576171875, 0.048828125, 0.0507354736328125, 0.0347137451171875, 0.0339508056640625, 0.03662109375, 0.030517578125, 0.046539306640625, 0.035858154296875, 0.0911712646484375, 0.3265380859375, 0.57830810546875, 0.7579803466796875, 0.836944580078125, 0.5710601806640625, 0.15411376953125, 0.0579833984375, 0.116729736328125, 0.0888824462890625, 0.0701904296875, 0.05950927734375, 0.04730224609375, 0.07171630859375, 0.09002685546875, 0.0946044921875, 0.0965118408203125, 0.0885009765625, 0.0965118408203125, 0.0965118408203125, 0.104522705078125, 0.1312255859375, 0.1373291015625, 0.16021728515625, 0.1796722412109375, 0.1888275146484375, 0.2124786376953125, 0.2162933349609375, 0.2254486083984375, 0.231170654296875, 0.223541259765625, 0.231170654296875, 0.2285003662109375, 0.2361297607421875, 0.246429443359375, 0.238037109375, 0.243377685546875, 0.23345947265625, 0.2254486083984375, 0.2246856689453125, 0.2147674560546875, 0.2208709716796875, 0.212860107421875, 0.20294189453125, 0.203704833984375, 0.19683837890625, 0.20294189453125, 0.193023681640625, 0.182342529296875, 0.189208984375, 0.1735687255859375, 0.1678466796875, 0.164031982421875, 0.1560211181640625, 0.1697540283203125, 0.1708984375, 0.1842498779296875, 0.2040863037109375, 0.2216339111328125, 0.25787353515625, 0.2803802490234375, 0.3101348876953125, 0.3429412841796875, 0.3650665283203125, 0.4161834716796875, 0.4726409912109375, 0.5443572998046875, 0.6298065185546875, 0.71258544921875]}
{"type": "ecg", "timestamp": 162, "samplenum": 163, "frequency:": 128, "heartrate": 96, "period": 625, "status": 1, "samples": [0.81024169921875, 0.87890625, 0.9426116943359375, 1.012420654296875, 1.0623931884765625, 1.126861572265625, 1.17645263671875, 1.1997222900390625, 1.2737274169921875, 1.4896392822265625, 1.7627716064453125, 1.9306182861328125, 2.0107269287109375, 1.7597198486328125, 1.2950897216796875, 1.174163818359375, 1.189422607421875, 1.11083984375, 1.067352294921875, 1.00555419921875, 0.9609222412109375, 0.9307861328125, 0.8861541748046875, 0.849151611328125, 0.78582763671875, 0.7396697998046875, 0.7045745849609375, 0.6649017333984375, 0.6504058837890625, 0.61798095703125, 0.5870819091796875, 0.565338134765625, 0.5329132080078125, 0.5218505859375, 0.4993438720703125, 0.48370361328125, 0.4741668701171875, 0.444793701171875, 0.4360198974609375, 0.4180908203125, 0.4016876220703125, 0.40435791015625, 0.3978729248046875, 0.3993988037109375, 0.392913818359375, 0.3814697265625, 0.379180908203125, 0.36468505859375, 0.3635406494140625, 0.3551483154296875, 0.3406524658203125, 0.34637451171875, 0.32958984375, 0.3208160400390625, 0.316619873046875, 0.2941131591796875, 0.2758026123046875, 0.241851806640625, 0.2178192138671875, 0.194549560546875, 0.156402587890625, 0.1323699951171875, 0.0873565673828125, 0.0453948974609375, 0.0095367431640625, -0.0423431396484375, -0.07781982421875, -0.12359619140625, -0.164794921875, -0.196075439453125, -0.246429443359375, -0.2838134765625, -0.3414154052734375, -0.40130615234375, -0.4398345947265625, -0.4993438720703125, -0.537872314453125, -0.5523681640625, -0.55389404296875, -0.5229949951171875, -0.492095947265625, -0.4390716552734375, -0.365447998046875, -0.28839111328125, -0.189971923828125, -0.0980377197265625, -0.023651123046875, 0.13885498046875, 0.4749298095703125, 0.8060455322265625, 1.031494140625, 1.113128662109375, 0.8197784423828125, 0.4974365234375, 0.5218505859375, 0.5725860595703125, 0.563812255859375, 0.5809783935546875, 0.583648681640625, 0.6038665771484375, 0.62103271484375, 0.6259918212890625, 0.6206512451171875, 0.6015777587890625, 0.597381591796875, 0.592041015625, 0.5893707275390625, 0.5977630615234375, 0.604248046875, 0.6069183349609375, 0.59051513671875, 0.579071044921875, 0.5687713623046875, 0.537872314453125, 0.4993438720703125, 0.44708251953125, 0.388336181640625, 0.3345489501953125, 0.2712249755859375, 0.2048492431640625, 0.1369476318359375, 0.055694580078125, -0.030517578125, -0.115203857421875, -0.2079010009765625, -0.3017425537109375, -0.385284423828125, -0.461578369140625]}
{"type": "ecg", "timestamp": 163, "samplenum": 164, "frequency:": 128, "heartrate": 99, "period": 601, "status": 1, "samples": [-0.5260467529296875, -0.5771636962890625, -0.629425048828125, -0.6801605224609375, -0.7171630859375, -0.7534027099609375, -0.7839202880859375, -0.8022308349609375, -0.8213043212890625, -0.836181640625, -0.84686279296875, -0.8548736572265625, -0.853729248046875, -0.85296630859375, -0.8575439453125, -0.8533477783203125, -0.8510589599609375, -0.8541107177734375, -0.8594512939453125, -0.8701324462890625, -0.8831024169921875, -0.902557373046875, -0.9368896484375, -0.9784698486328125, -1.0311126708984375, -1.0883331298828125, -1.128387451171875, -1.1569976806640625, -1.19476318359375, -1.2294769287109375, -1.2516021728515625, -1.274871826171875, -1.30615234375, -1.3385772705078125, -1.361083984375, -1.3553619384765625, -1.33056640625, -1.2737274169921875, -1.190948486328125, -1.0913848876953125, -0.8358001708984375, -0.4180908203125, -0.0583648681640625, 0.2437591552734375, 0.342559814453125, 0.0270843505859375, -0.2185821533203125, -0.15869140625, -0.1190185546875, -0.1148223876953125, -0.0911712646484375, -0.080108642578125, -0.0598907470703125, -0.0385284423828125, -0.0423431396484375, -0.0637054443359375, -0.0804901123046875, -0.0980377197265625, -0.1087188720703125, -0.107574462890625, -0.1064300537109375, -0.09613037109375, -0.0896453857421875, -0.0904083251953125, -0.0881195068359375, -0.1007080078125, -0.118255615234375, -0.13885498046875, -0.16632080078125, -0.1861572265625, -0.20904541015625, -0.2292633056640625, -0.2460479736328125, -0.26092529296875, -0.2727508544921875, -0.2880096435546875, -0.2994537353515625, -0.3284454345703125, -0.3696441650390625, -0.3894805908203125, -0.4093170166015625, -0.437164306640625, -0.46234130859375, -0.4856109619140625, -0.495147705078125, -0.5077362060546875, -0.5222320556640625, -0.5340576171875, -0.5466461181640625, -0.5535125732421875, -0.5641937255859375, -0.5706787109375, -0.567626953125, -0.574493408203125, -0.5779266357421875, -0.5786895751953125, -0.5809783935546875, -0.5767822265625, -0.5710601806640625, -0.5619049072265625, -0.555419921875, -0.5474090576171875, -0.5420684814453125, -0.5458831787109375, -0.551605224609375, -0.567626953125, -0.580596923828125, -0.5817413330078125, -0.582122802734375, -0.5855560302734375, -0.597381591796875, -0.597381591796875, -0.5786895751953125, -0.563812255859375, -0.54168701171875, -0.504302978515625, -0.4611968994140625, -0.4016876220703125, -0.3322601318359375, -0.2643585205078125, -0.095367431640625, 0.2590179443359375, 0.6198883056640625, 0.89874267578125, 1.0196685791015625, 0.72479248046875, 0.3826141357421875, 0.3849029541015625]}
{"type": "ecg", "timestamp": 164, "samplenum": 165, "frequency:": 128, "heartrate": 101, "period": 593, "status": 1, "samples": [0.4192352294921875, 0.39215087890625, 0.3932952880859375, 0.3910064697265625, 0.41656494140625, 0.470733642578125, 0.5184173583984375, 0.537109375, 0.5359649658203125, 0.5290985107421875, 0.5096435546875, 0.48828125, 0.4749298095703125, 0.45318603515625, 0.4146575927734375, 0.380706787109375, 0.3448486328125, 0.2986907958984375, 0.2574920654296875, 0.213623046875, 0.1506805419921875, 0.0789642333984375, 0.008392333984375, -0.070953369140625, -0.1445770263671875, -0.199127197265625, -0.2613067626953125, -0.3391265869140625, -0.4024505615234375, -0.46539306640625, -0.528717041015625, -0.5748748779296875, -0.624847412109375, -0.6664276123046875, -0.696563720703125, -0.7266998291015625, -0.7415771484375, -0.7579803466796875, -0.77362060546875, -0.7808685302734375, -0.79193115234375, -0.797271728515625, -0.8083343505859375, -0.818634033203125, -0.8152008056640625, -0.8190155029296875, -0.8289337158203125, -0.8365631103515625, -0.8472442626953125, -0.855255126953125, -0.865936279296875, -0.8647918701171875, -0.86669921875, -0.875091552734375, -0.873565673828125, -0.86669921875, -0.832366943359375, -0.792694091796875, -0.7648468017578125, -0.727081298828125, -0.70037841796875, -0.66375732421875, -0.6259918212890625, -0.609588623046875, -0.5832672119140625, -0.5649566650390625, -0.5462646484375, -0.519561767578125, -0.5252838134765625, -0.4669189453125, -0.2246856689453125, 0.0762939453125, 0.3055572509765625, 0.4161834716796875, 0.16326904296875, -0.258636474609375, -0.34332275390625, -0.2956390380859375, -0.3314971923828125, -0.3307342529296875, -0.3345489501953125, -0.32501220703125, -0.28839111328125, -0.269317626953125, -0.2529144287109375, -0.258636474609375, -0.27618408203125, -0.27618408203125, -0.2777099609375, -0.2628326416015625, -0.231170654296875, -0.1922607421875, -0.13885498046875, -0.099945068359375, -0.0789642333984375, -0.0701904296875, -0.0682830810546875, -0.0621795654296875, -0.0762939453125, -0.09002685546875, -0.0934600830078125, -0.0995635986328125, -0.0926971435546875, -0.0942230224609375, -0.095367431640625, -0.0911712646484375, -0.10223388671875, -0.1010894775390625, -0.098419189453125, -0.1068115234375, -0.1220703125, -0.1384735107421875, -0.1399993896484375, -0.153350830078125, -0.1605987548828125, -0.1476287841796875, -0.14801025390625, -0.1422882080078125, -0.1399993896484375, -0.144195556640625, -0.13885498046875, -0.1468658447265625, -0.1461029052734375, -0.1453399658203125, -0.15869140625, -0.1621246337890625, -0.1712799072265625, -0.1720428466796875]}
{"type": "ecg", "timestamp": 165, "samplenum": 166, "frequency:": 128, "heartrate": 101, "period": 593, "status": 1, "samples": [-0.16937255859375, -0.17852783203125, -0.1796722412109375, -0.188446044921875, -0.188446044921875, -0.182342529296875, -0.189208984375, -0.18157958984375, -0.17547607421875, -0.16632080078125, -0.1583099365234375, -0.174713134765625, -0.1728057861328125, -0.1708984375, -0.1834869384765625, -0.1758575439453125, -0.18768310546875, -0.1979827880859375, -0.07171630859375, 0.2140045166015625, 0.4779815673828125, 0.6587982177734375, 0.624847412109375, 0.20751953125, -0.1262664794921875, -0.13580322265625, -0.1506805419921875, -0.183868408203125, -0.2040863037109375, -0.2414703369140625, -0.2391815185546875, -0.226593017578125, -0.208282470703125, -0.2002716064453125, -0.212860107421875, -0.2117156982421875, -0.213623046875, -0.2040863037109375, -0.1827239990234375, -0.1689910888671875, -0.146484375, -0.127410888671875, -0.10986328125, -0.096893310546875, -0.0926971435546875, -0.0812530517578125, -0.0896453857421875, -0.0980377197265625, -0.098419189453125, -0.10833740234375, -0.1049041748046875, -0.107574462890625, -0.113677978515625, -0.112152099609375, -0.12359619140625, -0.1220703125, -0.1239776611328125, -0.13580322265625, -0.1308441162109375, -0.138092041015625, -0.144195556640625, -0.146484375, -0.1522064208984375, -0.1461029052734375, -0.1506805419921875, -0.150299072265625, -0.145721435546875, -0.14801025390625, -0.1430511474609375, -0.148773193359375, -0.148773193359375, -0.144195556640625, -0.1495361328125, -0.140380859375, -0.1399993896484375, -0.140380859375, -0.1224517822265625, -0.1201629638671875, -0.1178741455078125, -0.116729736328125, -0.1201629638671875, -0.1087188720703125, -0.098419189453125, -0.0865936279296875, -0.08087158203125, -0.0690460205078125, -0.0476837158203125, -0.0469207763671875, -0.0476837158203125, -0.048065185546875, -0.05035400390625, -0.042724609375, -0.0431060791015625, -0.0354766845703125, -0.048065185546875, 0.0301361083984375, 0.3147125244140625, 0.59356689453125, 0.79498291015625, 0.847625732421875, 0.5069732666015625, 0.1163482666015625, 0.0492095947265625, 0.0591278076171875, 0.020599365234375, -0.003814697265625, -0.0247955322265625, -0.03814697265625, -0.0179290771484375, 0.009918212890625, 0.008392333984375, 0.0110626220703125, 0.0026702880859375, -0.006866455078125, 0.006103515625, 0.01373291015625, 0.0301361083984375, 0.051116943359375, 0.0698089599609375, 0.086212158203125, 0.08697509765625, 0.0965118408203125, 0.09765625, 0.09002685546875, 0.090789794921875, 0.0762939453125, 0.0720977783203125, 0.0728607177734375]}
{"type": "ecg", "timestamp": 166, "samplenum": 167, "frequency:": 128, "heartrate": 101, "period": 593, "status": 1, "samples": [0.0751495361328125, 0.0888824462890625, 0.0789642333984375, 0.075531005859375, 0.081634521484375, 0.074005126953125, 0.0766754150390625, 0.0690460205078125, 0.0560760498046875, 0.0507354736328125, 0.0415802001953125, 0.0400543212890625, 0.034332275390625, 0.0316619873046875, 0.0247955322265625, 0.00762939453125, 0.0110626220703125, 0.0064849853515625, -0.00152587890625, 0.000762939453125, -0.0118255615234375, -0.0152587890625, -0.018310546875, -0.0278472900390625, -0.0240325927734375, -0.0286102294921875, -0.0247955322265625, -0.0171661376953125, -0.0217437744140625, -0.0247955322265625, -0.0286102294921875, -0.016021728515625, -0.0080108642578125, -0.01068115234375, 0.0003814697265625, 0.002288818359375, 0.0026702880859375, -0.0034332275390625, -0.01373291015625, -0.0057220458984375, -0.012969970703125, -0.0110626220703125, -0.0049591064453125, -0.029754638671875, 0.0762939453125, 0.3459930419921875, 0.566864013671875, 0.7205963134765625, 0.6908416748046875, 0.2872467041015625, -0.0354766845703125, -0.017547607421875, -0.0080108642578125, -0.0438690185546875, -0.0423431396484375, -0.0553131103515625, -0.05035400390625, -0.0270843505859375, -0.0202178955078125, -0.01983642578125, -0.0293731689453125, -0.038909912109375, -0.0270843505859375, -0.0194549560546875, -0.0019073486328125, 0.0164031982421875, 0.0244140625, 0.04119873046875, 0.0469207763671875, 0.0507354736328125, 0.0530242919921875, 0.0469207763671875, 0.0499725341796875, 0.0431060791015625, 0.03509521484375, 0.03204345703125, 0.0324249267578125, 0.040435791015625, 0.034332275390625, 0.0377655029296875, 0.0408172607421875, 0.029754638671875, 0.03204345703125, 0.0194549560546875, 0.0057220458984375, 0.0080108642578125, -0.000762939453125, 0.0, -0.0011444091796875, -0.0057220458984375, -0.0019073486328125, -0.01068115234375, -0.011444091796875, -0.016021728515625, -0.030517578125, -0.0362396240234375, -0.048828125, -0.0518798828125, -0.05645751953125, -0.0705718994140625, -0.0698089599609375, -0.0782012939453125, -0.080108642578125, -0.0774383544921875, -0.09307861328125, -0.0942230224609375, -0.0934600830078125, -0.0888824462890625, -0.07171630859375, -0.0690460205078125, -0.0614166259765625, -0.05645751953125, -0.0560760498046875, -0.054168701171875, -0.0598907470703125, -0.055694580078125, -0.0537872314453125, -0.045013427734375, -0.0469207763671875, -0.028228759765625, 0.185394287109375, 0.4848480224609375, 0.662994384765625, 0.732421875, 0.511932373046875, 0.1068115234375, -0.02593994140625, 0.0041961669921875]}
{"type": "ecg", "timestamp": 167, "samplenum": 168, "frequency:": 128, "heartrate": 102, "period": 585, "status": 1, "samples": [-0.02288818359375, -0.048828125, -0.0682830810546875, -0.083160400390625, -0.075531005859375, -0.0522613525390625, -0.0522613525390625, -0.0675201416015625, -0.080108642578125, -0.08087158203125, -0.0640869140625, -0.0568389892578125, -0.0385284423828125, -0.01373291015625, -0.0087738037109375, -0.0026702880859375, -0.0011444091796875, 0.00762939453125, 0.0171661376953125, 0.0041961669921875, 0.0, -0.0141143798828125, -0.02593994140625, -0.019073486328125, -0.0217437744140625, -0.0152587890625, -0.0072479248046875, -0.0041961669921875, 0.0072479248046875, 0.00152587890625, -0.0034332275390625, -0.003814697265625, -0.01220703125, -0.0125885009765625, -0.0171661376953125, -0.0164031982421875, -0.0125885009765625, -0.0179290771484375, -0.016021728515625, -0.0217437744140625, -0.0263214111328125, -0.026702880859375, -0.037384033203125, -0.0377655029296875, -0.0354766845703125, -0.0385284423828125, -0.0461578369140625, -0.052642822265625, -0.04730224609375, -0.0507354736328125, -0.052642822265625, -0.0484466552734375, -0.0576019287109375, -0.055694580078125, -0.0476837158203125, -0.040435791015625, -0.0324249267578125, -0.0339508056640625, -0.025177001953125, -0.0209808349609375, -0.0274658203125, -0.0316619873046875, -0.0423431396484375, -0.0415802001953125, -0.03814697265625, -0.0308990478515625, -0.031280517578125, -0.01373291015625, 0.1888275146484375, 0.4878997802734375, 0.6481170654296875, 0.6778717041015625, 0.4734039306640625, 0.113677978515625, -0.0278472900390625, -0.011444091796875, -0.0240325927734375, -0.048828125, -0.0766754150390625, -0.0896453857421875, -0.079345703125, -0.046539306640625, -0.0362396240234375, -0.052642822265625, -0.06103515625, -0.075531005859375, -0.0698089599609375, -0.057220458984375, -0.0537872314453125, -0.040435791015625, -0.0347137451171875, -0.029754638671875, -0.022125244140625, -0.01983642578125, -0.0232696533203125, -0.0408172607421875, -0.0530242919921875, -0.06561279296875, -0.077056884765625, -0.070953369140625, -0.0667572021484375, -0.0507354736328125, -0.0347137451171875, -0.0274658203125, -0.0125885009765625, -0.01373291015625, -0.01983642578125, -0.01983642578125, -0.023651123046875, -0.0179290771484375, -0.0244140625, -0.0270843505859375, -0.020599365234375, -0.02899169921875, -0.030517578125, -0.030517578125, -0.0316619873046875, -0.030517578125, -0.0400543212890625, -0.03814697265625, -0.0392913818359375, -0.046539306640625, -0.0453948974609375, -0.052642822265625, -0.05340576171875, -0.0522613525390625, -0.057220458984375, -0.060272216796875]}
{"type": "ecg", "timestamp": 168, "samplenum": 169, "frequency:": 128, "heartrate": 105, "period": 570, "status": 1, "samples": [-0.0736236572265625, -0.0644683837890625, -0.0484466552734375, -0.05035400390625, -0.0431060791015625, -0.0400543212890625, -0.0362396240234375, -0.0324249267578125, -0.0423431396484375, -0.0476837158203125, -0.0553131103515625, -0.0606536865234375, -0.0499725341796875, -0.0530242919921875, -0.06256103515625, 0.0675201416015625, 0.3742218017578125, 0.61492919921875, 0.7175445556640625, 0.6259918212890625, 0.225067138671875, -0.0568389892578125, -0.0347137451171875, -0.042724609375, -0.07476806640625, -0.0896453857421875, -0.118255615234375, -0.1094818115234375, -0.0942230224609375, -0.0789642333984375, -0.0736236572265625, -0.0881195068359375, -0.09918212890625, -0.1117706298828125, -0.1079559326171875, -0.0946044921875, -0.08544921875, -0.066375732421875, -0.06256103515625, -0.0598907470703125, -0.0553131103515625, -0.0637054443359375, -0.0652313232421875, -0.0743865966796875, -0.0789642333984375, -0.079345703125, -0.08697509765625, -0.0732421875, -0.0629425048828125, -0.05340576171875, -0.0385284423828125, -0.0415802001953125, -0.03814697265625, -0.0438690185546875, -0.0568389892578125, -0.0579833984375, -0.0701904296875, -0.0736236572265625, -0.0762939453125, -0.0850677490234375, -0.0827789306640625, -0.09002685546875, -0.0911712646484375, -0.091552734375, -0.0995635986328125, -0.1026153564453125, -0.112152099609375, -0.1125335693359375, -0.1125335693359375, -0.122833251953125, -0.1163482666015625, -0.115966796875, -0.1163482666015625, -0.1132965087890625, -0.122833251953125, -0.121307373046875, -0.1087188720703125, -0.09918212890625, -0.101470947265625, -0.1041412353515625, -0.090789794921875, -0.0919342041015625, -0.102996826171875, -0.1079559326171875, -0.1178741455078125, -0.1155853271484375, -0.1155853271484375, -0.104522705078125, -0.10986328125, -0.067138671875, 0.199127197265625, 0.4878997802734375, 0.627899169921875, 0.65155029296875, 0.3330230712890625, -0.0560760498046875, -0.101470947265625, -0.0713348388671875, -0.0995635986328125, -0.1129150390625, -0.1331329345703125, -0.140380859375, -0.1316070556640625, -0.11138916015625, -0.1007080078125, -0.0995635986328125, -0.1087188720703125, -0.1277923583984375, -0.121307373046875, -0.115966796875, -0.1132965087890625, -0.0926971435546875, -0.08087158203125, -0.0675201416015625, -0.06103515625, -0.0579833984375, -0.0446319580078125, -0.041961669921875, -0.03814697265625, -0.0331878662109375, -0.0286102294921875, -0.0217437744140625, -0.022125244140625, -0.012969970703125, -0.011444091796875, -0.0148773193359375, -0.012969970703125, -0.02899169921875]}
{"type": "ecg", "timestamp": 169, "samplenum": 170, "frequency:": 128, "heartrate": 112, "period": 531, "status": 1, "samples": [-0.04119873046875, -0.0499725341796875, -0.06103515625, -0.06103515625, -0.0705718994140625, -0.070953369140625, -0.0705718994140625, -0.080108642578125, -0.07476806640625, -0.077056884765625, -0.086212158203125, -0.0904083251953125, -0.09002685546875, -0.0865936279296875, -0.1018524169921875, -0.10528564453125, -0.1003265380859375, -0.1068115234375, -0.106048583984375, -0.1132965087890625, -0.118255615234375, -0.1079559326171875, -0.104522705078125, -0.0946044921875, -0.093841552734375, -0.089263916015625, -0.0759124755859375, -0.0873565673828125, -0.101470947265625, -0.103759765625, -0.1064300537109375, -0.1033782958984375, -0.0957489013671875, -0.1041412353515625, -0.0736236572265625, 0.168609619140625, 0.475311279296875, 0.626373291015625, 0.664520263671875, 0.37384033203125, -0.0545501708984375, -0.1155853271484375, -0.0644683837890625, -0.09613037109375, -0.0934600830078125, -0.11138916015625, -0.1255035400390625, -0.1190185546875, -0.1056671142578125, -0.084686279296875, -0.08087158203125, -0.084686279296875, -0.099945068359375, -0.107574462890625, -0.0972747802734375, -0.0873565673828125, -0.0659942626953125, -0.0507354736328125, -0.0400543212890625, -0.0244140625, -0.0217437744140625, -0.0072479248046875, 0.0064849853515625, 0.0125885009765625, 0.026702880859375, 0.031280517578125, 0.037384033203125, 0.040435791015625, 0.0324249267578125, 0.031280517578125, 0.0202178955078125, 0.0064849853515625, -0.0072479248046875, -0.0247955322265625, -0.0308990478515625, -0.0453948974609375, -0.04730224609375, -0.049591064453125, -0.070953369140625, -0.072479248046875, -0.0762939453125, -0.084686279296875, -0.0843048095703125, -0.0946044921875, -0.0946044921875, -0.1003265380859375, -0.11138916015625, -0.112152099609375, -0.1190185546875, -0.1171112060546875, -0.1220703125, -0.1300811767578125, -0.1220703125, -0.1163482666015625, -0.1064300537109375, -0.103759765625, -0.101470947265625, -0.0873565673828125, -0.09307861328125, -0.09765625, -0.1026153564453125, -0.112152099609375, -0.1087188720703125, -0.1132965087890625, -0.1033782958984375, -0.1171112060546875, -0.0675201416015625, 0.2170562744140625, 0.501251220703125, 0.65765380859375, 0.68206787109375, 0.3086090087890625, -0.0896453857421875, -0.09918212890625, -0.06256103515625, -0.0919342041015625, -0.098419189453125, -0.1140594482421875, -0.1220703125, -0.11138916015625, -0.091552734375, -0.081634521484375, -0.0701904296875, -0.0713348388671875, -0.0823974609375, -0.0782012939453125, -0.0743865966796875, -0.05340576171875]}
{"type": "ecg", "timestamp": 170, "samplenum": 171, "frequency:": 128, "heartrate": 114, "period": 523, "status": 1, "samples": [-0.0324249267578125, -0.01983642578125, 0.0064849853515625, 0.0179290771484375, 0.0316619873046875, 0.046539306640625, 0.051116943359375, 0.0701904296875, 0.07781982421875, 0.083160400390625, 0.0911712646484375, 0.0823974609375, 0.0804901123046875, 0.0675201416015625, 0.0457763671875, 0.0335693359375, 0.0164031982421875, 0.006866455078125, -0.009918212890625, -0.0213623046875, -0.0225067138671875, -0.0385284423828125, -0.04425048828125, -0.05035400390625, -0.0606536865234375, -0.0629425048828125, -0.0736236572265625, -0.075531005859375, -0.0774383544921875, -0.0865936279296875, -0.086212158203125, -0.0919342041015625, -0.0926971435546875, -0.09765625, -0.10986328125, -0.104522705078125, -0.1003265380859375, -0.0949859619140625, -0.0881195068359375, -0.0812530517578125, -0.06866455078125, -0.0698089599609375, -0.0766754150390625, -0.08392333984375, -0.0823974609375, -0.0774383544921875, -0.0797271728515625, -0.078582763671875, -0.086212158203125, 0.072479248046875, 0.4150390625, 0.6359100341796875, 0.760650634765625, 0.6290435791015625, 0.1346588134765625, -0.09002685546875, -0.0247955322265625, -0.0438690185546875, -0.05645751953125, -0.063323974609375, -0.07781982421875, -0.0728607177734375, -0.0606536865234375, -0.0377655029296875, -0.032806396484375, -0.0301361083984375, -0.0331878662109375, -0.0396728515625, -0.02593994140625, -0.012969970703125, 0.0102996826171875, 0.0362396240234375, 0.0469207763671875, 0.0667572021484375, 0.0835418701171875, 0.09765625, 0.1155853271484375, 0.12664794921875, 0.1407623291015625, 0.147247314453125, 0.15106201171875, 0.1567840576171875, 0.1438140869140625, 0.128936767578125, 0.1102447509765625, 0.0946044921875, 0.0820159912109375, 0.0591278076171875, 0.0476837158203125, 0.0354766845703125, 0.0274658203125, 0.028228759765625, 0.0152587890625, 0.0095367431640625, 0.00457763671875, -0.0011444091796875, -0.0030517578125, -0.0164031982421875, -0.0225067138671875, -0.0263214111328125, -0.034332275390625, -0.0354766845703125, -0.048828125, -0.055694580078125, -0.0545501708984375, -0.0537872314453125, -0.0476837158203125, -0.0530242919921875, -0.0438690185546875, -0.0354766845703125, -0.0453948974609375, -0.0446319580078125, -0.058746337890625, -0.066375732421875, -0.0621795654296875, -0.069427490234375, -0.0545501708984375, -0.069427490234375, -0.0431060791015625, 0.2056121826171875, 0.4791259765625, 0.592041015625, 0.5828857421875, 0.2399444580078125, -0.1636505126953125, -0.167083740234375, -0.08697509765625, -0.10986328125]}
{"type": "ecg", "timestamp": 171, "samplenum": 172, "frequency:": 128, "heartrate": 116, "period": 515, "status": 1, "samples": [-0.0934600830078125, -0.0820159912109375, -0.09613037109375, -0.089263916015625, -0.074005126953125, -0.0606536865234375, -0.04730224609375, -0.048828125, -0.046539306640625, -0.0370025634765625, -0.025177001953125, 0.0011444091796875, 0.022125244140625, 0.0415802001953125, 0.0568389892578125, 0.0675201416015625, 0.084686279296875, 0.08697509765625, 0.0904083251953125, 0.095367431640625, 0.0942230224609375, 0.1026153564453125, 0.09765625, 0.083160400390625, 0.061798095703125, 0.0278472900390625, 0.01068115234375, -0.018310546875, -0.0499725341796875, -0.0629425048828125, -0.0823974609375, -0.0919342041015625, -0.096893310546875, -0.106048583984375, -0.1094818115234375, -0.115966796875, -0.1220703125, -0.1338958740234375, -0.141143798828125, -0.13885498046875, -0.1529693603515625, -0.1583099365234375, -0.164031982421875, -0.1743316650390625, -0.162506103515625, -0.1628875732421875, -0.1651763916015625, -0.15411376953125, -0.157928466796875, -0.156402587890625, -0.1659393310546875, -0.1873016357421875, -0.1922607421875, -0.19683837890625, -0.19989013671875, -0.2033233642578125, -0.2193450927734375, -0.2223968505859375, -0.064849853515625, 0.23193359375, 0.39825439453125, 0.432586669921875, 0.23651123046875, -0.188446044921875, -0.3200531005859375, -0.238037109375, -0.257110595703125, -0.243377685546875, -0.2223968505859375, -0.2269744873046875, -0.2201080322265625, -0.2117156982421875, -0.1964569091796875, -0.194549560546875, -0.1956939697265625, -0.1941680908203125, -0.1842498779296875, -0.1651763916015625, -0.15716552734375, -0.13885498046875, -0.1178741455078125, -0.104522705078125, -0.0827789306640625, -0.0736236572265625, -0.066375732421875, -0.054931640625, -0.0537872314453125, -0.0415802001953125, -0.0335693359375, -0.028228759765625, -0.0263214111328125, -0.0408172607421875, -0.0438690185546875, -0.054168701171875, -0.07781982421875, -0.0820159912109375, -0.0850677490234375, -0.0885009765625, -0.0919342041015625, -0.0946044921875, -0.0904083251953125, -0.0926971435546875, -0.0934600830078125, -0.09613037109375, -0.096893310546875, -0.0858306884765625, -0.0926971435546875, -0.0980377197265625, -0.09613037109375, -0.1125335693359375, -0.12054443359375, -0.1178741455078125, -0.1140594482421875, -0.1132965087890625, -0.1132965087890625, -0.1087188720703125, -0.1171112060546875, -0.12359619140625, -0.128173828125, -0.1407623291015625, -0.135040283203125, -0.1323699951171875, -0.1239776611328125, -0.1415252685546875, -0.1495361328125, 0.054168701171875, 0.370025634765625, 0.5413055419921875]}
{"type": "ecg", "timestamp": 172, "samplenum": 173, "frequency:": 128, "heartrate": 114, "period": 523, "status": 1, "samples": [0.5535125732421875, 0.3448486328125, 0.000762939453125, -0.1316070556640625, -0.0965118408203125, -0.1068115234375, -0.127410888671875, -0.1338958740234375, -0.1499176025390625, -0.14495849609375, -0.1201629638671875, -0.1132965087890625, -0.10528564453125, -0.106048583984375, -0.1247406005859375, -0.116729736328125, -0.1056671142578125, -0.096893310546875, -0.083160400390625, -0.0797271728515625, -0.07171630859375, -0.0701904296875, -0.074005126953125, -0.0759124755859375, -0.0843048095703125, -0.08087158203125, -0.07781982421875, -0.0698089599609375, -0.048065185546875, -0.0461578369140625, -0.04119873046875, -0.0286102294921875, -0.0209808349609375, -0.014495849609375, -0.0225067138671875, -0.02899169921875, -0.0392913818359375, -0.0522613525390625, -0.0499725341796875, -0.0518798828125, -0.046539306640625, -0.0423431396484375, -0.0514984130859375, -0.051116943359375, -0.051116943359375, -0.05340576171875, -0.0637054443359375, -0.080108642578125, -0.08392333984375, -0.08544921875, -0.0789642333984375, -0.0743865966796875, -0.078582763671875, -0.0698089599609375, -0.06561279296875, -0.0667572021484375, -0.0675201416015625, -0.0782012939453125, -0.0774383544921875, -0.0827789306640625, -0.0782012939453125, -0.0652313232421875, -0.0980377197265625, -0.0286102294921875, 0.250244140625, 0.5191802978515625, 0.6114959716796875, 0.5077362060546875, 0.1834869384765625, -0.089263916015625, -0.0881195068359375, -0.051116943359375, -0.07781982421875, -0.0820159912109375, -0.095367431640625, -0.1033782958984375, -0.0759124755859375, -0.0583648681640625, -0.0553131103515625, -0.054931640625, -0.063323974609375, -0.0560760498046875, -0.046539306640625, -0.037384033203125, -0.025177001953125, -0.0278472900390625, -0.0209808349609375, -0.016021728515625, -0.01983642578125, -0.0244140625, -0.0362396240234375, -0.0400543212890625, -0.0507354736328125, -0.0598907470703125, -0.0499725341796875, -0.0461578369140625, -0.041961669921875, -0.0408172607421875, -0.042724609375, -0.037384033203125, -0.0453948974609375, -0.0568389892578125, -0.0732421875, -0.096893310546875, -0.1117706298828125, -0.1270294189453125, -0.1338958740234375, -0.141143798828125, -0.1399993896484375, -0.127410888671875, -0.133514404296875, -0.127410888671875, -0.1129150390625, -0.115966796875, -0.112152099609375, -0.10833740234375, -0.0919342041015625, -0.0675201416015625, -0.0530242919921875, -0.0247955322265625, 0.00152587890625, 0.017547607421875, 0.02899169921875, 0.0217437744140625, 0.0202178955078125, 0.008392333984375, -0.006866455078125, -0.0080108642578125]}
{"type": "ecg", "timestamp": 173, "samplenum": 174, "frequency:": 128, "heartrate": 116, "period": 515, "status": 1, "samples": [-0.0518798828125, -0.028228759765625, 0.2197265625, 0.50201416015625, 0.6275177001953125, 0.58135986328125, 0.2742767333984375, -0.0370025634765625, -0.0423431396484375, 0.0102996826171875, -0.0152587890625, -0.0186920166015625, -0.0179290771484375, -0.026702880859375, -0.0247955322265625, -0.01373291015625, -0.0087738037109375, -0.011444091796875, -0.016021728515625, -0.0186920166015625, -0.0118255615234375, 0.0, 0.0133514404296875, 0.0274658203125, 0.0492095947265625, 0.0705718994140625, 0.0732421875, 0.067138671875, 0.06866455078125, 0.070953369140625, 0.061798095703125, 0.05340576171875, 0.057220458984375, 0.0698089599609375, 0.0804901123046875, 0.09613037109375, 0.10833740234375, 0.0980377197265625, 0.0736236572265625, 0.0423431396484375, 0.0133514404296875, 0.0041961669921875, 0.0110626220703125, 0.01068115234375, 0.00152587890625, -0.00762939453125, -0.00457763671875, 0.0225067138671875, 0.046539306640625, 0.0530242919921875, 0.055694580078125, 0.063323974609375, 0.078582763671875, 0.0946044921875, 0.098419189453125, 0.093841552734375, 0.0904083251953125, 0.0980377197265625, 0.1007080078125, 0.078582763671875, 0.0492095947265625, 0.018310546875, -0.0080108642578125, -0.025177001953125, -0.051116943359375, -0.06256103515625, -0.07476806640625, -0.0858306884765625, 0.080108642578125, 0.3871917724609375, 0.55389404296875, 0.5718231201171875, 0.399017333984375, 0.0537872314453125, -0.03509521484375, 0.106048583984375, 0.1659393310546875, 0.18768310546875, 0.2048492431640625, 0.213623046875, 0.2338409423828125, 0.25482177734375, 0.2719879150390625, 0.2838134765625, 0.287628173828125, 0.2880096435546875, 0.2941131591796875, 0.298309326171875, 0.2960205078125, 0.30059814453125, 0.30670166015625, 0.304412841796875, 0.2994537353515625, 0.2925872802734375, 0.2838134765625, 0.27923583984375, 0.2681732177734375, 0.2521514892578125, 0.2391815185546875, 0.22430419921875, 0.206756591796875, 0.18310546875, 0.1552581787109375, 0.128173828125, 0.096893310546875, 0.0736236572265625, 0.05340576171875, 0.03509521484375, 0.0247955322265625, 0.011444091796875, -0.005340576171875, -0.022125244140625, -0.0522613525390625, -0.098419189453125, -0.1659393310546875, -0.24871826171875, -0.3292083740234375, -0.3940582275390625, -0.4222869873046875, -0.4314422607421875, -0.4352569580078125, -0.42877197265625, -0.435638427734375, -0.4550933837890625, -0.485992431640625, -0.5298614501953125, -0.5702972412109375, -0.6214141845703125]}
{"type": "ecg", "timestamp": 174, "samplenum": 175, "frequency:": 128, "heartrate": 118, "period": 507, "status": 1, "samples": [-0.6679534912109375, -0.708770751953125, -0.7907867431640625, -0.8914947509765625, -0.9929656982421875, -1.062774658203125, -0.93994140625, -0.6641387939453125, -0.4955291748046875, -0.4390716552734375, -0.5741119384765625, -0.8880615234375, -0.913238525390625, -0.70648193359375, -0.6023406982421875, -0.51727294921875, -0.434112548828125, -0.380706787109375, -0.3116607666015625, -0.23956298828125, -0.1728057861328125, -0.11749267578125, -0.077056884765625, -0.046539306640625, -0.016021728515625, 0.017547607421875, 0.05035400390625, 0.0789642333984375, 0.106048583984375, 0.1262664794921875, 0.1422882080078125, 0.15106201171875, 0.1529693603515625, 0.1621246337890625, 0.1728057861328125, 0.1861572265625, 0.2063751220703125, 0.2201080322265625, 0.235748291015625, 0.250244140625, 0.26702880859375, 0.3078460693359375, 0.3292083740234375, 0.330352783203125, 0.351715087890625, 0.373077392578125, 0.390625, 0.409698486328125, 0.4329681396484375, 0.4604339599609375, 0.4772186279296875, 0.493621826171875, 0.4840850830078125, 0.4299163818359375, 0.3528594970703125, 0.238800048828125, 0.09613037109375, -0.031280517578125, -0.11138916015625, -0.1735687255859375, -0.2269744873046875, -0.2147674560546875, -0.1766204833984375, -0.1651763916015625, -0.1583099365234375, -0.1544952392578125, -0.153350830078125, -0.1556396484375, -0.1560211181640625, -0.1300811767578125, -0.12664794921875, -0.1232147216796875, 0.0629425048828125, 0.3692626953125, 0.5313873291015625, 0.57525634765625, 0.43792724609375, 0.12359619140625, 0.0835418701171875, 0.2399444580078125, 0.27923583984375, 0.3124237060546875, 0.3490447998046875, 0.3612518310546875, 0.3803253173828125, 0.389862060546875, 0.4070281982421875, 0.437164306640625, 0.458526611328125, 0.4749298095703125, 0.4985809326171875, 0.5214691162109375, 0.537872314453125, 0.563812255859375, 0.59967041015625, 0.62408447265625, 0.6458282470703125, 0.6641387939453125, 0.6744384765625, 0.679779052734375, 0.6687164306640625, 0.6618499755859375, 0.6763458251953125, 0.690460205078125, 0.6877899169921875, 0.682830810546875, 0.6954193115234375, 0.696563720703125, 0.667572021484375, 0.6221771240234375, 0.557708740234375, 0.4970550537109375, 0.452423095703125, 0.396728515625, 0.3353118896484375, 0.276947021484375, 0.218963623046875, 0.171661376953125, 0.1285552978515625, 0.0919342041015625, 0.0675201416015625, 0.0408172607421875, 0.0209808349609375, 0.006866455078125, 0.0030517578125, 0.0057220458984375, 0.0019073486328125, 0.0118255615234375]}
{"type": "ecg", "timestamp": 175, "samplenum": 176, "frequency:": 128, "heartrate": 118, "period": 507, "status": 1, "samples": [0.03204345703125, 0.0499725341796875, 0.0652313232421875, 0.067901611328125, 0.074005126953125, 0.08392333984375, 0.102996826171875, 0.1354217529296875, 0.130462646484375, 0.167083740234375, 0.4077911376953125, 0.688934326171875, 0.8453369140625, 0.88043212890625, 0.554656982421875, 0.140380859375, 0.1373291015625, 0.2330780029296875, 0.2223968505859375, 0.2368927001953125, 0.2445220947265625, 0.255584716796875, 0.274658203125, 0.281524658203125, 0.2811431884765625, 0.27008056640625, 0.2532958984375, 0.24871826171875, 0.2559661865234375, 0.260162353515625, 0.2559661865234375, 0.2567291259765625, 0.275421142578125, 0.29754638671875, 0.3082275390625, 0.3082275390625, 0.3017425537109375, 0.29296875, 0.2685546875, 0.214385986328125, 0.148773193359375, 0.078582763671875, -0.0152587890625, -0.11749267578125, -0.1972198486328125, -0.2819061279296875, -0.370025634765625, -0.4467010498046875, -0.534820556640625, -0.603485107421875, -0.653076171875, -0.7080078125, -0.7404327392578125, -0.7625579833984375, -0.7862091064453125, -0.803375244140625, -0.82855224609375, -0.8518218994140625, -0.8731842041015625, -0.8922576904296875, -0.8884429931640625, -0.8819580078125, -0.88043212890625, -0.864410400390625, -0.832366943359375, -0.8007049560546875, -0.786590576171875, -0.775146484375, -0.7534027099609375, -0.7312774658203125, -0.7076263427734375, -0.6763458251953125, -0.632476806640625, -0.6175994873046875, -0.5550384521484375, -0.264739990234375, 0.06561279296875, 0.2277374267578125, 0.278472900390625, 0.026702880859375, -0.3078460693359375, -0.2765655517578125, -0.1583099365234375, -0.13885498046875, -0.1140594482421875, -0.1132965087890625, -0.119781494140625, -0.116729736328125, -0.1129150390625, -0.119781494140625, -0.1430511474609375, -0.1766204833984375, -0.215911865234375, -0.2410888671875, -0.2582550048828125, -0.2635955810546875, -0.254058837890625, -0.263214111328125, -0.2834320068359375, -0.2918243408203125, -0.2956390380859375, -0.3017425537109375, -0.2979278564453125, -0.273895263671875, -0.2445220947265625, -0.208282470703125, -0.1750946044921875, -0.171661376953125, -0.1880645751953125, -0.2197265625, -0.276947021484375, -0.345611572265625, -0.4131317138671875, -0.482940673828125, -0.5519866943359375, -0.580596923828125, -0.56610107421875, -0.53863525390625, -0.495147705078125, -0.4428863525390625, -0.39520263671875, -0.3528594970703125, -0.324249267578125, -0.29754638671875, -0.273895263671875, -0.249481201171875, -0.2079010009765625, -0.170135498046875]}
{"type": "ecg", "timestamp": 176, "samplenum": 177, "frequency:": 128, "heartrate": 120, "period": 500, "status": 1, "samples": [-0.1434326171875, -0.118255615234375, -0.1102447509765625, -0.116729736328125, -0.133514404296875, -0.1560211181640625, -0.160980224609375, -0.162506103515625, -0.1667022705078125, -0.15716552734375, -0.1861572265625, -0.16326904296875, 0.0774383544921875, 0.315093994140625, 0.3871917724609375, 0.3475189208984375, -0.0171661376953125, -0.394439697265625, -0.3582000732421875, -0.2735137939453125, -0.27923583984375, -0.2483367919921875, -0.2376556396484375, -0.2166748046875, -0.179290771484375, -0.1529693603515625, -0.1285552978515625, -0.116729736328125, -0.1068115234375, -0.0885009765625, -0.0682830810546875, -0.0400543212890625, -0.0133514404296875, 0.01068115234375, 0.031280517578125, 0.041961669921875, 0.0518798828125, 0.054168701171875, 0.0507354736328125, 0.052642822265625, 0.046539306640625, 0.04730224609375, 0.054931640625, 0.055694580078125, 0.05645751953125, 0.0507354736328125, 0.03814697265625, 0.029754638671875, 0.0247955322265625, 0.0202178955078125, 0.01373291015625, 0.0141143798828125, 0.018310546875, 0.0186920166015625, 0.0186920166015625, 0.0148773193359375, 0.0125885009765625, 0.006866455078125, -0.00152587890625, -0.0003814697265625, -0.0041961669921875, -0.0095367431640625, -0.008392333984375, -0.0102996826171875, -0.0125885009765625, -0.01068115234375, -0.0041961669921875, 0.000762939453125, -0.0057220458984375, -0.0179290771484375, -0.0293731689453125, -0.029754638671875, -0.028228759765625, -0.0225067138671875, -0.0270843505859375, -0.060272216796875, 0.05340576171875, 0.357818603515625, 0.57830810546875, 0.7244110107421875, 0.65460205078125, 0.1499176025390625, -0.1674652099609375, -0.0919342041015625, -0.0762939453125, -0.091552734375, -0.0766754150390625, -0.081634521484375, -0.074005126953125, -0.057220458984375, -0.040435791015625, -0.035858154296875, -0.0362396240234375, -0.0377655029296875, -0.0232696533203125, 0.0011444091796875, 0.0152587890625, 0.0347137451171875, 0.0553131103515625, 0.0720977783203125, 0.0911712646484375, 0.10223388671875, 0.106048583984375, 0.1033782958984375, 0.09765625, 0.09307861328125, 0.08697509765625, 0.0934600830078125, 0.09918212890625, 0.087738037109375, 0.069427490234375, 0.0576019287109375, 0.054168701171875, 0.043487548828125, 0.0274658203125, 0.02288818359375, 0.0194549560546875, 0.0179290771484375, 0.01678466796875, 0.0118255615234375, 0.0110626220703125, 0.0011444091796875, -0.0133514404296875, -0.0202178955078125, -0.0308990478515625, -0.0362396240234375, -0.038909912109375, -0.0408172607421875]}
{"type": "ecg", "timestamp": 177, "samplenum": 178, "frequency:": 128, "heartrate": 105, "period": 570, "status": 1, "samples": [-0.0461578369140625, -0.0492095947265625, -0.0423431396484375, -0.0457763671875, -0.0576019287109375, -0.067138671875, -0.0743865966796875, -0.0762939453125, -0.0858306884765625, -0.0865936279296875, -0.083160400390625, -0.1007080078125, -0.0164031982421875, 0.255584716796875, 0.504302978515625, 0.6473541259765625, 0.6175994873046875, 0.177001953125, -0.213623046875, -0.1720428466796875, -0.1209259033203125, -0.1369476318359375, -0.10986328125, -0.116729736328125, -0.109100341796875, -0.0823974609375, -0.072479248046875, -0.0705718994140625, -0.0701904296875, -0.0682830810546875, -0.0530242919921875, -0.0362396240234375, -0.0152587890625, 0.0049591064453125, 0.0194549560546875, 0.038909912109375, 0.0553131103515625, 0.0705718994140625, 0.0812530517578125, 0.077056884765625, 0.0667572021484375, 0.0560760498046875, 0.0469207763671875, 0.042724609375, 0.03814697265625, 0.0274658203125, 0.006103515625, -0.0133514404296875, -0.0263214111328125, -0.0370025634765625, -0.0385284423828125, -0.040435791015625, -0.0438690185546875, -0.04119873046875, -0.0377655029296875, -0.034332275390625, -0.0362396240234375, -0.0385284423828125, -0.038909912109375, -0.046539306640625, -0.05035400390625, -0.0560760498046875, -0.06561279296875, -0.0621795654296875, -0.064849853515625, -0.0751495361328125, -0.078582763671875, -0.0766754150390625, -0.0759124755859375, -0.08392333984375, -0.09765625, -0.10986328125, -0.11444091796875, -0.110626220703125, -0.1102447509765625, -0.1186370849609375, -0.121307373046875, 0.0244140625, 0.344085693359375, 0.5855560302734375, 0.7213592529296875, 0.621795654296875, 0.1190185546875, -0.199127197265625, -0.1491546630859375, -0.145721435546875, -0.16937255859375, -0.1728057861328125, -0.1811981201171875, -0.15869140625, -0.1392364501953125, -0.135040283203125, -0.1445770263671875, -0.14801025390625, -0.14190673828125, -0.1300811767578125, -0.10986328125, -0.0904083251953125, -0.0698089599609375, -0.0507354736328125, -0.0362396240234375, -0.020599365234375, -0.0125885009765625, -0.008392333984375, -0.0110626220703125, -0.01983642578125, -0.0247955322265625, -0.0354766845703125, -0.0400543212890625, -0.041961669921875, -0.0579833984375, -0.063323974609375, -0.0720977783203125, -0.08544921875, -0.089263916015625, -0.0942230224609375, -0.0934600830078125, -0.0911712646484375, -0.0926971435546875, -0.0942230224609375, -0.09765625, -0.0988006591796875, -0.101470947265625, -0.099945068359375, -0.098419189453125, -0.1071929931640625, -0.109100341796875, -0.1117706298828125]}
{"type": "ecg", "timestamp": 178, "samplenum": 179, "frequency:": 128, "heartrate": 105, "period": 570, "status": 1, "samples": [-0.1251220703125, -0.1285552978515625, -0.1270294189453125, -0.127410888671875, -0.128936767578125, -0.131988525390625, -0.1247406005859375, -0.1239776611328125, -0.130462646484375, -0.144195556640625, -0.16021728515625, -0.15869140625, -0.1522064208984375, -0.145721435546875, -0.1621246337890625, -0.14801025390625, 0.08087158203125, 0.4177093505859375, 0.6237030029296875, 0.713348388671875, 0.5008697509765625, 0.0186920166015625, -0.1861572265625, -0.1407623291015625, -0.1556396484375, -0.1819610595703125, -0.1941680908203125, -0.2002716064453125, -0.179290771484375, -0.15869140625, -0.156402587890625, -0.1598358154296875, -0.162506103515625, -0.1628875732421875, -0.1522064208984375, -0.13580322265625, -0.1125335693359375, -0.0896453857421875, -0.0751495361328125, -0.0530242919921875, -0.0370025634765625, -0.0263214111328125, -0.018310546875, -0.0202178955078125, -0.0171661376953125, -0.020599365234375, -0.03204345703125, -0.0308990478515625, -0.031280517578125, -0.0316619873046875, -0.0362396240234375, -0.0469207763671875, -0.0522613525390625, -0.05645751953125, -0.0598907470703125, -0.0652313232421875, -0.0675201416015625, -0.06561279296875, -0.0698089599609375, -0.0698089599609375, -0.067138671875, -0.067901611328125, -0.0640869140625, -0.063323974609375, -0.06561279296875, -0.0675201416015625, -0.0705718994140625, -0.069427490234375, -0.0732421875, -0.0789642333984375, -0.0782012939453125, -0.0766754150390625, -0.0766754150390625, -0.078582763671875, -0.078582763671875, -0.074005126953125, -0.0629425048828125, -0.06103515625, -0.0690460205078125, -0.0606536865234375, -0.05340576171875, -0.061798095703125, -0.070953369140625, -0.0759124755859375, -0.074005126953125, -0.0728607177734375, -0.067138671875, -0.075531005859375, -0.048828125, 0.1834869384765625, 0.498199462890625, 0.7083892822265625, 0.8365631103515625, 0.577545166015625, 0.0476837158203125, -0.106048583984375, -0.0446319580078125, -0.0698089599609375, -0.0820159912109375, -0.091552734375, -0.091552734375, -0.066375732421875, -0.0457763671875, -0.0476837158203125, -0.064849853515625, -0.06866455078125, -0.0640869140625, -0.0522613525390625, -0.0301361083984375, -0.0141143798828125, -0.00152587890625, 0.0148773193359375, 0.0335693359375, 0.04730224609375, 0.055694580078125, 0.0644683837890625, 0.067138671875, 0.0637054443359375, 0.058746337890625, 0.0514984130859375, 0.05340576171875, 0.0537872314453125, 0.048828125, 0.0446319580078125, 0.0354766845703125, 0.0270843505859375, 0.017547607421875, 0.008392333984375]}
{"type": "ecg", "timestamp": 179, "samplenum": 180, "frequency:": 128, "heartrate": 93, "period": 640, "status": 1, "samples": [0.009918212890625, 0.0095367431640625, 0.011444091796875, 0.01068115234375, 0.005340576171875, 0.0034332275390625, -0.0019073486328125, -0.0041961669921875, -0.003814697265625, -0.0072479248046875, -0.0087738037109375, -0.014495849609375, -0.016021728515625, -0.017547607421875, -0.0274658203125, -0.0301361083984375, -0.0324249267578125, -0.0362396240234375, -0.0423431396484375, -0.0514984130859375, -0.0446319580078125, -0.03662109375, -0.0400543212890625, -0.0385284423828125, -0.0331878662109375, -0.028228759765625, -0.02899169921875, -0.0431060791015625, -0.0514984130859375, -0.0537872314453125, -0.054168701171875, -0.0438690185546875, -0.057220458984375, -0.02899169921875, 0.2155303955078125, 0.54168701171875, 0.7476806640625, 0.8464813232421875, 0.577545166015625, 0.0598907470703125, -0.09613037109375, -0.034332275390625, -0.0598907470703125, -0.0782012939453125, -0.0911712646484375, -0.09918212890625, -0.08392333984375, -0.06561279296875, -0.0537872314453125, -0.0598907470703125, -0.0701904296875, -0.0713348388671875, -0.06103515625, -0.0377655029296875, -0.01983642578125, -0.0064849853515625, 0.0110626220703125, 0.020599365234375, 0.03204345703125, 0.04119873046875, 0.04425048828125, 0.04425048828125, 0.035858154296875, 0.0301361083984375, 0.0247955322265625, 0.0225067138671875, 0.0274658203125, 0.0213623046875, 0.0125885009765625, 0.005340576171875, -0.005340576171875, -0.0148773193359375, -0.025177001953125, -0.02593994140625, -0.028228759765625, -0.0370025634765625, -0.0354766845703125, -0.0396728515625, -0.04730224609375, -0.0453948974609375, -0.046539306640625, -0.048065185546875, -0.0522613525390625, -0.05645751953125, -0.057220458984375, -0.064849853515625, -0.06561279296875, -0.0682830810546875, -0.0743865966796875, -0.077056884765625, -0.0820159912109375, -0.0858306884765625, -0.0904083251953125, -0.0995635986328125, -0.103759765625, -0.0988006591796875, -0.0896453857421875, -0.090789794921875, -0.0904083251953125, -0.0789642333984375, -0.078582763671875, -0.08392333984375, -0.095367431640625, -0.103759765625, -0.1049041748046875, -0.1064300537109375, -0.1033782958984375, -0.1201629638671875, -0.0362396240234375, 0.2666473388671875, 0.5550384521484375, 0.74615478515625, 0.7900238037109375, 0.3742218017578125, -0.09613037109375, -0.1384735107421875, -0.101470947265625, -0.138092041015625, -0.150299072265625, -0.1708984375, -0.1720428466796875, -0.15106201171875, -0.131988525390625, -0.1293182373046875, -0.1407623291015625, -0.152587890625, -0.1522064208984375, -0.142669677734375]}
{"type": "ecg", "timestamp": 180, "samplenum": 181, "frequency:": 128, "heartrate": 88, "period": 679, "status": 1, "samples": [-0.1331329345703125, -0.115203857421875, -0.0934600830078125, -0.0762939453125, -0.0659942626953125, -0.058746337890625, -0.052642822265625, -0.0518798828125, -0.0583648681640625, -0.0621795654296875, -0.0720977783203125, -0.078582763671875, -0.0720977783203125, -0.0728607177734375, -0.0804901123046875, -0.086212158203125, -0.0942230224609375, -0.1018524169921875, -0.1071929931640625, -0.107574462890625, -0.106048583984375, -0.102996826171875, -0.10223388671875, -0.1064300537109375, -0.1049041748046875, -0.1041412353515625, -0.1026153564453125, -0.0972747802734375, -0.10223388671875, -0.1049041748046875, -0.1079559326171875, -0.1140594482421875, -0.115203857421875, -0.121307373046875, -0.121307373046875, -0.121307373046875, -0.124359130859375, -0.119781494140625, -0.1201629638671875, -0.1224517822265625, -0.1209259033203125, -0.12054443359375, -0.118255615234375, -0.121307373046875, -0.11749267578125, -0.11138916015625, -0.11444091796875, -0.1110076904296875, -0.10986328125, -0.1010894775390625, -0.0881195068359375, -0.087738037109375, -0.0820159912109375, -0.0743865966796875, -0.0690460205078125, -0.067138671875, -0.0766754150390625, -0.0789642333984375, -0.0789642333984375, -0.0804901123046875, -0.0614166259765625, -0.07171630859375, -0.038909912109375, 0.208282470703125, 0.52032470703125, 0.7373809814453125, 0.881195068359375, 0.61187744140625, 0.069427490234375, -0.0858306884765625, -0.02593994140625, -0.05950927734375, -0.0736236572265625, -0.0865936279296875, -0.09613037109375, -0.0766754150390625, -0.0568389892578125, -0.048065185546875, -0.05950927734375, -0.0701904296875, -0.061798095703125, -0.04730224609375, -0.0247955322265625, -0.000762939453125, 0.014495849609375, 0.032806396484375, 0.048828125, 0.05950927734375, 0.067138671875, 0.0667572021484375, 0.067901611328125, 0.06103515625, 0.0522613525390625, 0.0514984130859375, 0.0423431396484375, 0.0457763671875, 0.0553131103515625, 0.0484466552734375, 0.043487548828125, 0.03814697265625, 0.026702880859375, 0.020599365234375, 0.0194549560546875, 0.018310546875, 0.0110626220703125, 0.0102996826171875, 0.012969970703125, 0.01220703125, 0.0232696533203125, 0.0232696533203125, 0.00762939453125, 0.0011444091796875, 0.003814697265625, 0.003814697265625, -0.0072479248046875, -0.00762939453125, -0.00152587890625, -0.006103515625, -0.0030517578125, -0.0030517578125, -0.0041961669921875, 0.0049591064453125, 0.0057220458984375, 0.0049591064453125, 0.0091552734375, 0.008392333984375, 0.006103515625, -0.0030517578125]}
{"type": "ecg", "timestamp": 181, "samplenum": 182, "frequency:": 128, "heartrate": 94, "period": 632, "status": 2, "samples": [-0.006103515625, -0.00762939453125, -0.018310546875, -0.0225067138671875, -0.029754638671875, -0.0469207763671875, -0.0621795654296875, -0.0667572021484375, -0.0667572021484375, -0.0720977783203125, -0.0732421875, -0.0736236572265625, -0.0659942626953125, -0.049591064453125, -0.057220458984375, -0.066375732421875, -0.0579833984375, -0.0545501708984375, -0.032806396484375, -0.01678466796875, -0.028228759765625, 0.1087188720703125, 0.4360198974609375, 0.6908416748046875, 0.844573974609375, 0.78277587890625, 0.2948760986328125, -0.0659942626953125, -0.0377655029296875, -0.0392913818359375, -0.0797271728515625, -0.0827789306640625, -0.1033782958984375, -0.098419189453125, -0.0812530517578125, -0.0774383544921875, -0.0762939453125, -0.0919342041015625, -0.1003265380859375, -0.1018524169921875, -0.1125335693359375, -0.10833740234375, -0.104522705078125, -0.0911712646484375, -0.0644683837890625, -0.0637054443359375, -0.060272216796875, -0.0507354736328125, -0.06561279296875, -0.1129150390625, -0.1796722412109375, -0.237274169921875, -0.3047943115234375, -0.3574371337890625, -0.3734588623046875, -0.3971099853515625, -0.4070281982421875, -0.4093170166015625, -0.4100799560546875, -0.3833770751953125, -0.356292724609375, -0.331878662109375, -0.3017425537109375, -0.2727508544921875, -0.264739990234375, -0.28839111328125, -0.293731689453125, -0.2765655517578125, -0.254058837890625, -0.2216339111328125, -0.19989013671875, -0.1708984375, -0.141143798828125, -0.1384735107421875, -0.128936767578125, -0.1277923583984375, -0.1338958740234375, -0.1293182373046875, -0.1373291015625, -0.146484375, -0.1674652099609375, -0.160980224609375, -0.0972747802734375, -0.0423431396484375, 0.0091552734375, 0.0720977783203125, 0.1102447509765625, 0.10833740234375, 0.08544921875, 0.0919342041015625, 0.113677978515625, 0.1247406005859375, 0.141143798828125, 0.146484375, 0.150299072265625, 0.15106201171875, 0.1373291015625, 0.1369476318359375, 0.141143798828125, 0.1537322998046875, 0.1766204833984375, 0.191497802734375, 0.2086639404296875, 0.1972198486328125, 0.25177001953125, 0.521087646484375, 0.84381103515625, 1.113128662109375, 1.2393951416015625, 0.81634521484375, 0.2376556396484375, 0.142669677734375, 0.1552581787109375, 0.07171630859375, 0.048828125, 0.005340576171875, -0.04425048828125, -0.058746337890625, -0.0782012939453125, -0.091552734375, -0.11138916015625, -0.154876708984375, -0.168609619140625, -0.18463134765625, -0.206756591796875, -0.2025604248046875, -0.2140045166015625, -0.220489501953125]}
{"type": "ecg", "timestamp": 182, "samplenum": 183, "frequency:": 128, "heartrate": 94, "period": 632, "status": 2, "samples": [-0.2105712890625, -0.2040863037109375, -0.1934051513671875, -0.1861572265625, -0.1861572265625, -0.200653076171875, -0.2227783203125, -0.2346038818359375, -0.2429962158203125, -0.240325927734375, -0.2559661865234375, -0.2777099609375, -0.2704620361328125, -0.3055572509765625, -0.35400390625, -0.3753662109375, -0.40130615234375, -0.408172607421875, -0.4055023193359375, -0.397491455078125, -0.3849029541015625, -0.384521484375, -0.376129150390625, -0.3692626953125, -0.3726959228515625, -0.3810882568359375, -0.3910064697265625, -0.395965576171875, -0.414276123046875, -0.4344940185546875, -0.4352569580078125, -0.4505157470703125, -0.4726409912109375, -0.490570068359375, -0.5046844482421875, -0.5062103271484375, -0.516510009765625, -0.525665283203125, -0.5229949951171875, -0.52490234375, -0.52947998046875, -0.5382537841796875, -0.5367279052734375, -0.5290985107421875, -0.5130767822265625, -0.4901885986328125, -0.4856109619140625, -0.4673004150390625, -0.4505157470703125, -0.4547119140625, -0.44403076171875, -0.440216064453125, -0.4302978515625, -0.4093170166015625, -0.3978729248046875, -0.3856658935546875, -0.380706787109375, -0.2216339111328125, 0.1522064208984375, 0.482940673828125, 0.734710693359375, 0.661468505859375, 0.0762939453125, -0.2933502197265625, -0.2544403076171875, -0.2620697021484375, -0.27923583984375, -0.2658843994140625, -0.2593994140625, -0.2471923828125, -0.2399444580078125, -0.2346038818359375, -0.2376556396484375, -0.225067138671875, -0.2178192138671875, -0.2140045166015625, -0.1678466796875, -0.1251220703125, -0.10528564453125, -0.0865936279296875, -0.077056884765625, -0.0621795654296875, -0.041961669921875, -0.035858154296875, -0.055694580078125, -0.0530242919921875, -0.0240325927734375, -0.02288818359375, -0.0232696533203125, -0.016021728515625, -0.0133514404296875, -0.0202178955078125, -0.0408172607421875, -0.038909912109375, -0.0461578369140625, -0.069427490234375, -0.07171630859375, -0.0762939453125, -0.0934600830078125, -0.072479248046875, -0.02899169921875, -0.031280517578125, -0.02288818359375, 0.041961669921875, 0.089263916015625, 0.1125335693359375, 0.1506805419921875, 0.1743316650390625, 0.176239013671875, 0.1621246337890625, 0.1285552978515625, 0.11138916015625, 0.098419189453125, 0.0827789306640625, 0.0732421875, 0.051116943359375, 0.0568389892578125, 0.0820159912109375, 0.078582763671875, 0.0782012939453125, 0.0873565673828125, 0.0957489013671875, 0.10528564453125, 0.116729736328125, 0.1300811767578125, 0.138092041015625, 0.1491546630859375, 0.1628875732421875]}
{"type": "ecg", "timestamp": 183, "samplenum": 184, "frequency:": 128, "heartrate": 52, "period": 1132, "status": 2, "samples": [0.177764892578125, 0.199127197265625, 0.2162933349609375, 0.225067138671875, 0.2330780029296875, 0.2490997314453125, 0.27618408203125, 0.30517578125, 0.312042236328125, 0.337982177734375, 0.518798828125, 0.85296630859375, 1.143646240234375, 1.2981414794921875, 1.1402130126953125, 0.6443023681640625, 0.3818511962890625, 0.435638427734375, 0.439453125, 0.4360198974609375, 0.4505157470703125, 0.4474639892578125, 0.4398345947265625, 0.40740966796875, 0.36773681640625, 0.328826904296875, 0.29754638671875, 0.278472900390625, 0.2742767333984375, 0.2803802490234375, 0.2849578857421875, 0.301361083984375, 0.3292083740234375, 0.362396240234375, 0.4032135009765625, 0.4364013671875, 0.46234130859375, 0.4833221435546875, 0.4863739013671875, 0.4791259765625, 0.463104248046875, 0.4512786865234375, 0.437164306640625, 0.4119873046875, 0.411224365234375, 0.4047393798828125, 0.360870361328125, 0.3265380859375, 0.3017425537109375, 0.27008056640625, 0.2376556396484375, 0.2094268798828125, 0.1850128173828125, 0.15411376953125, 0.1346588134765625, 0.10833740234375, 0.0568389892578125, 0.0091552734375, -0.0335693359375, -0.079345703125, -0.1312255859375, -0.1834869384765625, -0.222015380859375, -0.254058837890625, -0.2834320068359375, -0.341796875, -0.4459381103515625, -0.5889892578125, -0.771331787109375, -0.9368896484375, -1.05743408203125, -1.134490966796875, -1.1501312255859375, -1.132965087890625, -1.0944366455078125, -0.9967803955078125, -0.8758544921875, -0.7595062255859375, -0.6595611572265625, -0.6153106689453125, -0.5756378173828125, -0.5615234375, -0.5786895751953125, -0.53253173828125, -0.4825592041015625, -0.4680633544921875, -0.438690185546875, -0.3345489501953125, -0.002288818359375, 0.479888916015625, 0.8861541748046875, 1.151275634765625, 1.05438232421875, 0.77056884765625, 0.8579254150390625, 1.0906219482421875, 1.18560791015625, 1.28936767578125, 1.35650634765625, 1.3866424560546875, 1.4251708984375, 1.4286041259765625, 1.4446258544921875, 1.4499664306640625, 1.4514923095703125, 1.483917236328125, 1.3706207275390625, 1.117706298828125, 0.293731689453125, -1.3263702392578125, -2.41546630859375, -2.439117431640625, -2.0809173583984375, -1.544189453125, -1.0112762451171875, -0.555419921875, -0.0835418701171875, 0.310516357421875, 0.606536865234375, 0.8502960205078125, 1.1077880859375, 1.3427734375, 1.4942169189453125, 1.5888214111328125, 1.639556884765625, 1.668548583984375, 1.6330718994140625, 1.5483856201171875]}
